time (s)	magX	magY	magZ
9762.490714	345.531281	144.084732	355.054352
9762.493985	348.278198	143.734070	365.691406
9762.497334	349.622437	143.734070	377.205139
9762.500647	350.849792	143.500290	389.011108
9762.503999	353.304504	143.383392	401.109283
9762.507331	353.421387	142.389832	411.921692
9762.510732	355.466980	142.272934	425.831665
9762.514075	356.577454	141.337814	438.806549
9762.517307	355.759216	139.935120	452.716553
9762.520651	357.337219	139.000000	464.522522
9762.523972	354.590302	137.831085	478.198730
9762.527350	355.116302	136.662186	492.459412
9762.530664	354.414948	134.791931	506.486267
9762.533623	354.473419	133.038559	519.928711
9762.536914	351.960236	131.285217	534.364685
9762.540244	350.265350	129.064285	550.554016
9762.543560	347.459961	126.434250	563.470459
9762.546876	346.641724	123.687317	581.354797
9762.550214	342.433655	120.414383	593.219177
9762.553559	337.758026	116.849213	608.707214
9762.556905	334.777313	113.517830	623.260071
9762.560211	330.335480	109.660439	637.462280
9762.563552	324.432495	105.627708	652.248962
9762.566879	318.704865	101.419640	667.912354
9762.570236	312.334320	97.328468	680.419617
9762.573576	306.139099	92.886620	695.031006
9762.576951	299.417908	86.691414	707.479797
9762.580227	289.715942	81.665108	721.974304
9762.583557	282.468750	76.171249	736.994751
9762.586882	273.351257	70.677383	749.969604
9762.590212	264.000000	64.365280	761.892456
9762.593543	253.070740	58.170074	775.977783
9762.596879	243.193451	50.981297	790.004700
9762.600228	232.848633	44.260078	798.771484
9762.603544	221.685577	37.655758	810.460510
9762.606922	209.061371	30.642315	821.623596
9762.610233	197.138519	23.570425	829.163025
9762.613599	183.988312	15.504969	838.864929
9762.616885	170.078323	8.199299	846.988953
9762.620233	157.278778	-0.509059	856.047974
9762.623547	143.193451	-8.223845	864.405579
9762.626881	128.406784	-16.172413	866.626526
9762.630211	113.912338	-23.887201	872.880249
9762.633543	98.833435	-32.829338	878.607788
9762.636887	83.812981	-40.953243	881.121033
9762.640236	68.558739	-48.668030	883.926331
9762.643566	53.772064	-56.733486	884.101746
9762.646900	38.342491	-65.266510	886.205750
9762.650245	23.029808	-72.747513	886.614868
9762.653537	7.132672	-80.929863	886.147278
9762.656867	-7.303331	-89.521332	883.984802
9762.660215	-23.258913	-97.177666	881.179382
9762.663548	-38.045586	-104.892448	878.490967
9762.666872	-53.650497	-112.139687	873.815308
9762.670201	-68.261833	-119.971352	868.847412
9762.673540	-82.697838	-126.984810	863.236694
9762.676893	-96.958496	-132.829346	856.456970
9762.680256	-111.511391	-141.245468	848.800720
9762.683561	-124.369370	-146.739349	840.559937
9762.686875	-137.987137	-152.817657	832.143738
9762.690201	-150.611328	-159.305084	821.506775
9762.693565	-163.761536	-165.032730	813.499695
9762.696861	-174.573929	-170.000595	802.862671
9762.700204	-186.438339	-175.611343	789.595581
9762.703539	-198.770309	-181.864990	777.322021
9762.706875	-209.232025	-186.306839	766.042114
9762.710223	-218.349503	-190.573349	751.138489
9762.713565	-228.577423	-195.015198	738.163696
9762.716897	-237.694916	-198.755707	729.046143
9762.719802	-245.351257	-201.561081	711.395630
9762.723108	-253.825836	-204.775558	700.641724
9762.726444	-260.897705	-207.464066	684.861450
9762.729773	-268.144958	-210.035645	669.139648
9762.733108	-273.346558	-212.548798	656.340149
9762.736472	-280.944458	-214.945068	639.215637
9762.739776	-285.094086	-215.821762	624.487427
9762.743105	-289.594391	-216.815323	609.817627
9762.746441	-294.094696	-217.750443	594.505005
9762.749776	-299.062531	-219.737595	580.478088
9762.753102	-301.341888	-219.737595	564.814697
9762.756439	-304.205719	-219.211563	549.852722
9762.759777	-307.653992	-219.562256	535.708984
9762.763102	-309.933380	-220.497391	521.214478
9762.766460	-311.336060	-219.211563	506.895416
9762.769774	-312.738770	-218.627136	494.037384
9762.773104	-314.141449	-217.282883	478.607849
9762.776440	-315.018097	-217.224442	463.528931
9762.779774	-316.829926	-216.698425	451.138489
9762.783129	-316.303925	-215.821762	439.858582
9762.786432	-315.661011	-214.828171	424.954987
9762.789774	-315.777893	-212.139694	411.512573
9762.793104	-314.725891	-210.620102	402.511993
9762.796431	-314.199890	-209.100525	388.017548
9762.799769	-313.264771	-207.230270	376.386902
9762.803101	-311.394501	-205.886047	364.464050
9762.806438	-311.569824	-204.074234	354.119232
9762.809772	-308.472229	-202.203979	342.722382
9762.813102	-306.835785	-200.976624	331.442444
9762.816430	-304.088837	-198.171249	321.623627
9762.819770	-302.919922	-195.307419	311.220337
9762.823118	-300.056091	-193.144943	301.226196
9762.826429	-298.127411	-191.683823	291.582703
9762.829761	-296.081848	-189.170654	281.880768
9762.833101	-292.399780	-187.066635	273.932190
9762.836425	-290.061951	-185.897720	265.574524
9762.839760	-289.009918	-182.858566	254.703674
9762.843095	-284.100525	-180.637650	247.865570
9762.846429	-281.295135	-178.299835	238.806534
9762.849765	-278.080658	-175.669785	230.857971
9762.853126	-276.327271	-173.273529	224.195206
9762.856423	-272.586792	-170.585037	216.071304
9762.859762	-269.781403	-168.071899	208.882523
9762.863092	-265.573334	-166.902985	202.862656
9762.866444	-263.060181	-164.039154	195.615433
9762.869766	-261.073059	-161.642899	190.180008
9762.873094	-256.689636	-159.188202	184.277023
9762.876432	-254.059601	-156.441269	176.854477
9762.879764	-250.494446	-154.337234	172.003494
9762.883094	-246.929260	-152.525421	167.503220
9762.886421	-244.825256	-149.953827	160.781998
9762.889759	-242.545868	-148.434250	154.879013
9762.893088	-239.272934	-147.090012	150.554062
9762.896454	-236.526016	-143.817062	146.404434
9762.899755	-233.486847	-142.355927	141.144363
9762.903090	-231.558167	-140.310349	136.644073
9762.906420	-226.940964	-138.381653	132.319107
9762.909760	-225.187622	-135.693176	127.877266
9762.913087	-222.031555	-134.290482	124.721214
9762.916433	-218.992401	-132.303329	121.097603
9762.919762	-216.362366	-130.374634	116.363533
9762.923092	-215.368805	-128.562836	113.675041
9762.926424	-212.972519	-127.393913	110.051437
9762.929755	-208.998260	-124.880775	106.836929
9762.933089	-207.128006	-123.185860	104.499123
9762.936420	-204.381058	-122.133835	101.401520
9762.939789	-201.984787	-120.380478	97.953239
9762.943084	-200.173004	-118.627113	95.264755
9762.946416	-197.426056	-116.990646	91.874924
9762.949753	-195.263580	-115.178841	88.894211
9762.953086	-193.919357	-114.652832	86.848625
9762.956422	-190.061951	-111.847458	83.692574
9762.959752	-188.367035	-110.444771	82.757446
9762.963081	-187.256577	-109.860306	79.835182
9762.966420	-184.568085	-108.340736	78.257164
9762.969748	-182.171829	-106.821152	75.159554
9762.973082	-180.593811	-105.769142	73.055527
9762.976411	-178.255997	-104.600235	71.360603
9762.979748	-177.087082	-103.080650	68.672119
9762.983111	-173.989471	-101.911743	68.087669
9762.986419	-172.411453	-100.859734	65.808296
9762.989752	-171.300995	-99.281700	63.236702
9762.993085	-168.904739	-98.697250	62.184685
9762.996424	-167.385147	-98.638802	60.723557
9762.999749	-166.040909	-97.177666	58.619522
9763.003083	-163.819977	-95.950325	57.450615
9763.006419	-162.709534	-94.956741	55.346577
9763.009748	-161.599060	-93.846283	54.177673
9763.013079	-159.378143	-93.203384	52.073639
9763.016412	-158.267685	-92.209816	51.956749
9763.019747	-157.507889	-91.333138	49.794270
9763.023080	-155.345413	-91.099350	49.502045
9763.026427	-153.767380	-89.872002	48.917591
9763.029749	-152.773819	-88.819984	47.631794
9763.033078	-152.072464	-88.761536	47.105785
9763.036403	-150.845108	-87.008179	45.352425
9763.039743	-149.383972	-86.248390	44.884865
9763.043079	-147.981293	-86.540619	44.826416
9763.046440	-147.805954	-85.430153	43.248390
9763.049741	-146.812378	-85.605492	41.378139
9763.053074	-145.818817	-84.261246	41.202805
9763.056407	-144.591461	-83.209229	40.033897
9763.059750	-142.604324	-82.507889	39.975452
9763.063112	-142.662766	-81.864990	38.514320
9763.066404	-142.721222	-82.040321	38.222092
9763.069758	-141.493866	-81.280533	37.754528
9763.073073	-140.383408	-80.637634	37.462303
9763.076410	-140.149628	-79.819397	36.410286
9763.079742	-139.097595	-79.176506	37.170074
9763.083071	-137.987137	-79.176506	36.176506
9763.086412	-137.636459	-78.650490	35.299824
9763.089739	-137.928696	-79.001167	35.475163
9763.093073	-136.584457	-78.066040	34.189362
9763.096408	-137.052017	-78.416710	33.546463
9763.099736	-136.000000	-76.897133	34.481590
9763.103075	-135.064865	-77.423141	33.663353
9763.106433	-135.240219	-76.546463	32.669785
9763.109741	-133.954407	-76.254234	32.728230
9763.113071	-133.837524	-75.494446	31.851547
9763.116422	-133.662186	-75.552887	31.559320
9763.119758	-132.960831	-75.085327	31.617767
9763.123071	-133.253067	-74.793098	31.325541
9763.126407	-132.376389	-75.552887	31.909992
9763.129730	-131.967255	-75.085327	31.091759
9763.133068	-132.201050	-74.617760	30.273523
9763.136403	-131.733475	-74.442429	30.682640
9763.139738	-131.616592	-74.208649	30.624195
9763.143071	-131.850372	-74.150200	30.974867
9763.146404	-131.908829	-74.150200	30.390415
9763.149766	-131.149033	-73.799530	30.039742
9763.153069	-130.798355	-73.682640	30.682640
9763.156400	-130.506134	-73.682640	30.098188
9763.159728	-130.915253	-73.448853	30.331968
9763.163065	-130.798355	-72.981293	29.864407
9763.166399	-130.798355	-73.974869	30.273523
9763.169731	-131.265915	-73.624191	29.981297
9763.173063	-131.207489	-73.857979	29.396843
9763.176394	-131.382812	-73.682640	31.208649
9763.179730	-131.850372	-74.091759	30.857977
9763.183111	-131.791931	-74.734650	31.267094
9763.186400	-132.434830	-74.091759	30.273523
9763.189729	-132.201050	-74.267090	30.507305
9763.193101	-132.376389	-74.500870	30.916422
9763.196399	-133.019287	-74.559319	31.383986
9763.199735	-134.246643	-74.968437	31.909992
9763.203063	-133.837524	-75.143776	32.728230
9763.206390	-134.480423	-75.026886	32.845119
9763.209727	-134.831085	-74.559319	32.026886
9763.213064	-135.532425	-75.728226	32.903564
9763.216396	-135.415543	-75.845116	34.481590
9763.219727	-137.110458	-76.254234	33.663353
9763.223065	-136.584457	-75.903557	33.838692
9763.226396	-138.922272	-76.897133	34.715370
9763.229723	-138.045593	-76.897133	35.241379
9763.233061	-138.863815	-77.481590	35.475163
9763.236419	-139.915833	-77.773819	35.650497
9763.239720	-141.084747	-78.066040	35.650497
9763.243051	-141.084747	-78.241379	37.754528
9763.246385	-141.961426	-78.942726	37.579193
9763.249727	-143.130325	-79.936287	38.748100
9763.253059	-143.656342	-80.111626	39.566334
9763.256387	-144.474564	-80.053185	40.033897
9763.259723	-145.994156	-80.988304	40.209232
9763.263054	-146.169495	-81.455872	40.735241
9763.266385	-146.753952	-81.514320	41.553474
9763.269722	-147.689072	-82.040321	42.605492
9763.273054	-149.617752	-82.741669	44.241966
9763.276390	-150.786682	-83.209229	44.183517
9763.279751	-150.903564	-83.852135	45.118645
9763.283054	-152.715363	-84.728806	45.703098
9763.286386	-154.585617	-85.254822	46.988895
9763.289717	-155.170074	-85.371712	47.924019
9763.293052	-156.981873	-86.365280	48.976036
9763.296385	-158.033905	-87.300407	50.144943
9763.299717	-160.079483	-88.410866	51.080070
9763.303048	-160.547043	-88.644646	52.073639
9763.306385	-162.534195	-89.521332	52.658092
9763.309715	-164.053772	-89.579773	55.171246
9763.313044	-165.807129	-90.865570	56.106369
9763.316387	-167.034470	-92.326706	57.333725
9763.319721	-169.255402	-93.261833	58.444183
9763.323073	-170.716537	-93.437164	60.548218
9763.326380	-173.521912	-94.722961	62.535358
9763.329721	-174.106369	-96.242538	64.347168
9763.333050	-176.444183	-96.827003	66.801872
9763.336386	-177.729980	-97.645233	67.620102
9763.339714	-180.710693	-98.463470	69.139687
9763.343053	-183.165405	-100.158386	71.302162
9763.346384	-184.334305	-100.625954	73.581528
9763.349712	-186.730560	-101.093513	76.094681
9763.353045	-188.951492	-103.080650	78.666275
9763.356376	-190.471054	-104.424889	80.302742
9763.359708	-192.808868	-104.892448	82.406776
9763.363043	-195.263580	-106.704262	85.153709
9763.366389	-197.601395	-107.113380	88.017532
9763.369709	-200.640564	-108.925179	89.887787
9763.373045	-202.277023	-109.509644	92.868492
9763.376370	-205.433090	-111.555229	95.732323
9763.379710	-207.887772	-113.250145	98.829926
9763.383054	-209.933380	-114.477501	102.278198
9763.386377	-212.972519	-115.821739	105.609589
9763.389709	-215.251907	-117.049095	108.181183
9763.393040	-218.349503	-118.276451	112.272354
9763.396379	-220.219757	-119.737572	115.428406
9763.399705	-223.434235	-122.192284	119.285789
9763.403043	-225.888947	-123.770302	122.850960
9763.406377	-228.518997	-124.237862	127.000587
9763.409728	-231.441269	-126.049675	130.799530
9763.413038	-234.772644	-127.452370	136.001160
9763.416377	-236.935120	-129.205734	140.443024
9763.419702	-240.909409	-130.666870	144.300400
9763.423036	-244.591461	-131.952652	149.326706
9763.426365	-246.520172	-133.881363	154.002335
9763.429702	-250.260681	-135.050262	158.736420
9763.433040	-252.715363	-137.154297	164.697830
9763.436371	-256.222076	-140.135010	171.419052
9763.439709	-260.137909	-141.479263	177.789597
9763.443035	-262.592621	-142.005264	182.582108
9763.446371	-265.281097	-144.693741	188.309753
9763.449739	-268.612518	-146.154877	195.849213
9763.453048	-272.762146	-148.375809	201.810638
9763.456365	-275.392151	-148.960266	208.414963
9763.459701	-279.600250	-151.707199	215.545303
9763.463034	-281.704254	-152.934540	223.201645
9763.466373	-287.081238	-154.278793	230.215073
9763.469696	-290.003479	-155.856812	237.812973
9763.473033	-291.113983	-157.317947	245.235550
9763.476366	-295.322052	-159.129761	253.943909
9763.479698	-298.419647	-161.058456	264.990082
9763.483032	-301.341888	-162.168915	270.483917
9763.486366	-306.309753	-164.857407	281.939240
9763.489696	-307.244873	-165.324966	289.303345
9763.493036	-310.167145	-166.552307	300.291077
9763.496370	-313.323181	-167.253647	310.811218
9763.499700	-315.894806	-169.357697	319.928711
9763.503027	-319.401520	-170.117477	329.455292
9763.506363	-320.044434	-171.169495	340.209229
9763.509700	-322.791351	-171.987732	352.015198
9763.513088	-324.895386	-172.981293	363.178253
9763.516362	-327.233185	-173.974869	374.691986
9763.519697	-329.220337	-175.202225	385.621277
9763.523031	-330.506134	-175.494446	398.245453
9763.526379	-332.317963	-176.488022	410.226776
9763.529697	-333.895966	-176.663361	422.909424
9763.533028	-334.480408	-176.897141	436.468750
9763.536361	-334.889526	-176.663361	448.625366
9763.539689	-335.123322	-176.429565	462.418457
9763.543029	-336.467560	-177.130920	474.867340
9763.546362	-335.123322	-176.195786	491.582672
9763.549689	-335.357086	-175.436005	504.849762
9763.553025	-334.889526	-174.559326	518.993591
9763.556381	-333.662170	-175.085327	535.066040
9763.559695	-330.798370	-172.338409	547.514893
9763.563027	-329.278778	-170.994171	562.301575
9763.566359	-326.824066	-169.240799	576.737610
9763.569688	-324.194031	-168.305679	590.238464
9763.573020	-321.563995	-165.441849	606.778503
9763.576351	-316.070129	-162.870255	619.636475
9763.579707	-312.504974	-160.532440	635.416687
9763.583024	-307.712433	-157.434830	652.599609
9763.586354	-304.205719	-154.804794	668.496826
9763.589689	-297.718292	-150.362946	681.237915
9763.593017	-290.587952	-147.090012	695.031006
9763.596352	-283.516083	-142.180603	706.778503
9763.599713	-276.677979	-138.381653	721.389832
9763.603023	-269.606079	-133.706024	738.864990
9763.606351	-259.728821	-128.270599	746.579773
9763.609683	-251.488037	-122.601395	759.613098
9763.613023	-240.734085	-117.107544	774.808899
9763.616349	-230.739914	-111.262993	784.452332
9763.619682	-221.388657	-105.476913	795.673828
9763.623016	-210.985382	-99.047920	810.168335
9763.626348	-199.296310	-92.092926	815.194641
9763.629684	-187.782578	-85.371712	825.130310
9763.633017	-174.983047	-78.299820	837.754517
9763.636374	-162.241959	-71.461716	842.605469
9763.639687	-148.799530	-63.571598	849.677429
9763.643018	-135.766205	-55.973701	859.671570
9763.646350	-121.797775	-48.668030	863.528992
9763.649680	-107.595558	-40.251900	869.139709
9763.653014	-93.217995	-32.361778	873.756836
9763.656346	-78.957336	-24.763882	874.867310
9763.659688	-64.462883	-16.756868	881.004089
9763.663014	-49.208649	-8.925190	880.302795
9763.666352	-33.895966	-0.684395	882.640625
9763.669684	-18.700174	8.023962	882.991272
9763.673011	-3.562828	15.797195	881.121033
9763.676348	11.340737	24.096434	879.309143
9763.679716	27.120983	31.869667	875.919312
9763.683018	41.732323	39.467564	875.159485
9763.686347	57.395676	47.007015	870.717651
9763.689682	71.890121	54.780247	865.223816
9763.693011	86.618355	62.495029	860.139160
9763.696341	101.229691	70.502045	852.073608
9763.699680	115.256577	77.047928	843.774353
9763.703009	128.932785	84.119812	836.468750
9763.706340	142.667450	91.425484	826.942139
9763.709682	155.992996	97.445358	818.701294
9763.713056	168.850967	104.867920	808.707214
9763.717642	193.514908	116.732330	787.082397
9763.720966	204.853302	122.050850	775.334900
9763.724410	215.373459	128.070709	764.873169
9763.727703	226.302734	133.798355	752.365906
9763.731045	236.530685	138.707764	741.144348
9763.734384	246.174164	143.091171	725.188782
9763.737671	254.590286	148.292801	713.207458
9763.740977	263.415527	151.741089	698.713013
9763.744309	271.130341	155.715363	685.621277
9763.747734	278.260681	159.631195	670.367065
9763.750625	285.800110	163.079483	657.275330
9763.753936	293.105774	165.183517	641.962585
9763.757247	299.242554	168.924026	628.637024
9763.761001	304.736420	170.852722	614.084167
9763.764309	310.288696	173.307419	602.862671
9763.767250	314.379913	175.762131	589.361755
9763.770551	317.477509	177.164810	573.523071
9763.773942	321.159546	178.509048	557.392151
9763.777264	326.536530	179.970184	544.183472
9763.780569	327.822327	181.372879	531.676208
9763.783853	329.458801	181.957321	516.889526
9763.787187	333.549988	182.950897	501.576843
9763.790564	335.011108	183.126236	489.887756
9763.793876	335.186462	183.126236	474.516632
9763.797269	337.232025	183.827576	463.002930
9763.800641	338.167175	183.360016	450.612488
9763.803921	337.348907	183.009354	436.118042
9763.807181	337.874939	183.301575	423.552338
9763.810541	337.465820	182.950897	411.161896
9763.813856	338.050262	182.483337	399.531281
9763.817214	337.056702	181.314423	389.712463
9763.820539	334.309753	180.554642	377.614258
9763.823916	333.725311	179.911743	364.931610
9763.827253	333.140839	179.035065	354.294556
9763.830525	330.744598	177.632370	343.715973
9763.833839	329.867920	176.697250	332.494446
9763.837183	327.296326	174.651657	322.500275
9763.840537	325.075409	173.891876	313.090607
9763.843862	323.146698	172.956757	303.213318
9763.847274	320.107544	171.203384	294.271179
9763.850600	318.003510	169.508469	285.270599
9763.853924	316.250153	168.690231	274.925751
9763.857179	312.743408	166.527756	266.334290
9763.860517	310.639404	165.241959	257.333710
9763.863848	305.846863	163.663940	250.437164
9763.867201	304.794861	162.144363	242.605499
9763.870539	301.872589	161.209229	234.130920
9763.873919	298.307404	159.455872	227.409698
9763.877259	295.969604	157.819397	219.870239
9763.880511	293.339569	155.364685	213.791931
9763.883847	289.189941	153.962006	207.772064
9763.887168	286.326111	152.325531	199.355927
9763.890533	283.403870	150.572174	192.926941
9763.893862	280.306274	149.111038	187.140854
9763.897283	277.793121	147.883682	181.997665
9763.900602	274.344818	146.071884	175.568665
9763.903861	271.305664	143.850952	170.600815
9763.907177	268.149628	142.097595	164.756287
9763.910501	265.987152	140.753357	159.671539
