time (s)	magX	magY	magZ
2857.187094	-4.850967	301.872589	907.577454
2857.190429	-3.156052	313.503235	896.531250
2857.193759	-1.694916	323.088257	881.919861
2857.197132	0.759789	333.491516	870.756836
2857.200432	1.928696	343.310333	857.314453
2857.203763	3.156048	353.421387	845.040894
2857.207094	4.909409	362.714203	831.481567
2857.210426	6.896551	369.786102	818.974243
2857.213797	8.182348	378.786682	805.064209
2857.217095	9.877264	387.202820	791.504944
2857.220435	11.279953	394.566895	778.296326
2857.223761	12.682640	400.703705	766.665649
2857.227089	14.202221	407.658691	752.931030
2857.230424	15.371127	412.801880	741.534180
2857.233758	17.066044	418.880219	725.520142
2857.237087	18.234949	424.023376	712.253052
2857.240419	19.286966	429.108124	700.505493
2857.243756	20.689655	434.134430	687.881287
2857.247088	22.326124	438.634705	676.426025
2857.250419	23.027470	441.673889	662.749817
2857.253753	24.313267	444.537720	651.703674
2857.257111	25.599064	447.167755	638.553467
2857.260418	26.534189	450.440674	624.584961
2857.263793	27.410870	452.953857	615.818176
2857.267085	28.930449	453.888977	601.908203
2857.270424	29.924021	457.804810	588.874878
2857.273750	30.976036	458.155487	578.530029
2857.277083	31.385155	459.265930	566.841003
2857.280416	32.261833	460.317932	554.333740
2857.283755	32.612507	461.720642	542.586182
2857.287083	33.781414	462.188171	532.182922
2857.290416	34.307423	461.545319	522.364075
2857.293748	34.833431	461.720642	511.960846
2857.297078	35.067211	461.720642	499.862640
2857.300452	35.710110	461.136169	490.160706
2857.303750	36.645237	461.837524	478.939209
2857.307090	36.236118	460.142609	469.471069
2857.310413	37.171246	458.623016	458.950897
2857.313752	37.288136	457.863220	451.060791
2857.317079	37.814144	455.116302	440.365265
2857.320410	37.931034	454.005859	430.897156
2857.323750	38.632378	452.953857	421.662781
2857.327084	38.866158	451.668060	411.843964
2857.330414	38.690823	449.096436	405.882507
2857.333748	39.450615	447.869110	396.355927
2857.337111	38.690823	446.466370	387.647552
2857.340417	39.567505	443.836334	380.751038
2857.343762	40.327293	441.498566	371.282867
2857.347083	39.976624	439.394501	364.444763
2857.350409	39.976624	436.998260	355.385742
2857.353749	40.444183	435.244873	349.248993
2857.357081	40.736412	432.322632	340.891296
2857.360409	40.327293	429.634125	334.170074
2857.363747	40.502628	427.939209	326.513733
2857.367075	40.619522	425.835175	320.318512
2857.370408	40.853302	422.912903	313.772644
2857.373745	40.677963	420.049072	307.109894
2857.377076	41.262421	417.886627	301.908234
2857.380412	41.028637	414.905914	295.187042
2857.383743	40.677963	413.269470	289.634705
2857.387097	40.911747	410.171814	283.790192
2857.390406	41.262421	408.009369	278.588531
2857.393743	41.437756	403.742828	271.750427
2857.397071	40.911747	402.106354	268.068390
2857.400403	41.905319	398.424316	264.444763
2857.403738	42.080654	396.612549	257.139099
2857.407090	42.665108	392.755127	252.054367
2857.410406	42.197544	391.118652	246.969620
2857.413742	42.080654	388.313293	242.995316
2857.417072	41.963764	385.157227	240.540634
2857.420407	41.554646	383.812988	234.462296
2857.423737	41.788429	380.247803	230.604919
2857.427068	41.905319	378.552887	226.455292
2857.430438	41.729980	376.448853	222.422562
2857.433742	41.437756	373.526611	219.032730
2857.437073	41.963764	371.013428	215.350677
2857.440402	41.729980	368.500305	211.493286
2857.443735	41.905319	366.805359	208.454117
2857.447069	41.613091	362.889526	204.655182
2857.450403	41.496201	361.253082	201.206894
2857.453735	41.262421	359.265930	198.226181
2857.457061	41.320862	357.045013	194.719467
2857.460417	40.970192	353.421387	192.206314
2857.463734	41.788429	353.421387	189.108719
2857.467069	41.145527	351.434265	185.601990
2857.470402	41.087082	349.213318	184.140854
2857.473736	41.203972	346.174194	179.699020
2857.477089	40.619522	344.771484	177.419632
2857.480399	40.502628	342.141449	174.088257
2857.483736	40.444183	340.621857	172.977783
2857.487071	40.502628	337.874939	170.289307
2857.490400	39.976624	337.290497	167.951492
2857.493733	40.561073	334.601990	165.029221
2857.497063	40.736412	332.848633	162.457626
2857.500392	40.502628	331.971954	161.464050
2857.503764	40.561073	330.277039	159.476929
2857.507066	40.035065	327.763885	157.080658
2857.510393	40.502628	326.185852	154.742844
2857.513731	40.151958	324.023376	153.632370
2857.517078	40.677963	323.380493	151.762131
2857.520392	40.853302	321.393341	149.307434
2857.523733	40.502628	320.750427	147.904739
2857.527064	41.203972	318.763306	147.028046
2857.530393	40.619522	317.886627	145.625366
2857.533727	40.444183	316.133270	143.579773
2857.537061	40.268848	314.672119	141.709534
2857.540394	41.203972	314.263031	140.891296
2857.543729	40.970192	312.977203	139.663940
2857.547080	40.619522	311.516083	138.319687
2857.550399	41.028637	311.399170	138.495041
2857.553725	41.028637	310.814728	137.150787
2857.557062	40.970192	308.886047	136.098770
2857.560390	40.970192	308.476898	134.929871
2857.563721	41.028637	306.431335	133.410278
2857.567061	41.145527	307.074219	133.118073
2857.570388	41.262421	306.197571	132.650497
2857.573725	41.145527	305.496216	132.241379
2857.577053	41.554646	304.619507	131.598480
2857.580393	41.087082	303.742859	130.604904
2857.583717	41.554646	303.275299	130.780258
2857.587051	41.496201	302.983063	129.085327
2857.590409	42.080654	303.041504	129.845123
2857.593723	41.905319	301.872589	128.734650
2857.597057	41.320862	301.288147	127.682648
2857.600387	41.145527	301.112793	127.682648
2857.603724	41.671535	301.112793	127.741081
2857.607050	41.846870	300.703674	126.805962
2857.610393	42.197544	300.645233	126.630623
2857.613718	41.963764	299.593231	126.630623
2857.617047	42.606663	300.353027	125.812393
2857.620447	42.197544	299.242554	126.513741
2857.623718	42.080654	300.119232	126.922852
2857.627049	42.548218	299.827026	127.098190
2857.630390	42.665108	300.294586	126.455292
2857.633745	42.781998	299.476318	126.221512
2857.637050	42.606663	298.891876	125.987732
2857.640380	42.898888	300.236115	125.403275
2857.643715	43.366451	301.171234	126.864410
2857.647051	43.424896	300.353027	127.039742
2857.650381	43.366451	300.469910	126.572174
2857.653718	43.600235	300.236115	127.156639
2857.657054	44.418468	300.995911	127.039742
2857.660382	45.061367	301.521942	128.208649
2857.665086	45.119812	303.158386	130.371124
2857.668412	44.944473	302.749268	129.552902
2857.671745	45.353592	304.268860	130.663361
2857.675044	45.762711	303.684387	130.663361
2857.678373	46.171829	304.561066	132.533600
2857.681709	46.405609	306.022217	133.234955
2857.685067	46.814728	306.489777	133.527176
2857.688418	47.808296	307.191132	133.819412
2857.691386	47.808296	308.184692	135.280533
2857.695056	48.100525	309.236694	136.040329
2857.698381	48.334305	309.528931	137.150787
2857.701706	48.509644	311.340759	140.248398
2857.705096	48.918762	311.516083	140.423737
2857.707972	49.269432	313.152527	141.417297
2857.711309	49.094093	315.139679	143.462891
2857.714637	49.620106	316.133270	145.450027
2857.718378	50.029221	316.483948	146.618942
2857.721719	50.029221	318.704865	147.787842
2857.724643	50.029221	318.178864	149.132095
2857.728392	51.139687	321.334900	151.119232
2857.731747	50.847458	321.744019	151.820572
2857.734738	51.607246	324.198700	155.151962
2857.737961	52.250145	325.016968	155.385742
2857.741642	52.308590	327.237885	157.431320
2857.744553	52.951488	328.114563	160.236694
2857.747880	53.185272	330.686157	160.762711
2857.751246	53.769722	332.322632	163.918762
2857.754574	54.529514	332.556396	166.373459
2857.757959	54.938633	334.601990	169.295731
2857.761294	54.938633	336.121582	170.406189
2857.764614	55.932205	339.043854	172.042664
2857.767874	56.341320	340.271210	175.958511
2857.771218	56.984219	342.141449	177.478088
2857.774601	57.276443	343.602570	179.815903
2857.777948	57.744011	345.881958	183.965515
2857.781300	58.211571	348.161316	185.660431
2857.784620	59.146698	349.388672	187.063126
2857.787967	59.380478	352.427826	191.972534
2857.791219	60.081821	354.239655	195.128586
2857.794550	60.841610	354.940979	197.641724
2857.797880	61.835186	358.272339	201.440674
2857.801258	62.419640	359.149048	204.655182
2857.804577	63.354763	361.779083	207.518997
2857.807962	63.880772	363.240204	211.317947
2857.811335	64.348335	365.811798	215.292221
2857.814619	65.166565	369.610779	219.032730
2857.817883	66.277031	372.182343	220.493881
2857.821240	66.861481	373.000610	225.987732
2857.824561	67.504379	374.987732	229.962021
2857.827912	68.322617	378.143768	233.702530
2857.831239	69.257744	382.118073	238.904144
2857.834618	69.608414	382.644073	243.638214
2857.837992	70.075981	387.378143	247.963181
2857.841211	71.654007	389.599060	252.580368
2857.844561	72.589127	391.118652	257.606659
2857.847876	73.115143	392.988892	262.691406
2857.851232	73.641144	395.268280	267.483948
2857.854564	74.342484	400.353027	272.101105
2857.857951	75.511398	402.223297	278.763885
2857.861289	76.504967	404.035065	285.835785
2857.864592	76.972534	407.191132	289.926941
2857.867879	78.024544	407.366455	294.894806
2857.871226	79.193451	411.048492	300.797791
2857.874545	80.070129	411.983612	306.642334
2857.877900	80.537697	414.847443	314.006439
2857.881228	82.115723	417.419037	319.967865
2857.884626	82.349503	419.873749	326.455292
2857.887962	83.869080	424.081848	333.760956
2857.891210	84.745758	425.952087	341.300415
2857.894542	85.622444	426.419617	346.677399
2857.897863	86.791351	429.809448	354.567505
2857.901240	87.609589	432.147308	362.048523
2857.904558	88.310928	433.608429	369.354187
2857.907510	89.772064	436.589142	377.244324
2857.911273	90.590294	438.108704	383.965515
2857.914625	91.642311	439.920502	391.095856
2857.917873	92.635880	441.907684	399.511993
2857.921194	93.863235	441.264771	408.863220
2857.924532	94.973694	443.485687	418.857391
2857.927889	96.025711	446.115723	425.461731
2857.930804	96.551727	447.401520	433.118073
2857.934129	98.188202	447.810638	443.638245
2857.937466	98.947983	450.148468	452.872559
2857.940804	99.883102	450.206879	463.392731
2857.944143	100.935120	452.077148	471.399750
2857.947444	102.396255	452.603180	482.212158
2857.950813	103.798950	453.246063	492.673889
2857.954108	104.617187	453.655182	501.382233
2857.957445	106.545883	454.239655	514.766174
2857.960779	106.545883	451.901794	522.597839
2857.964102	107.890121	452.895386	533.760925
2857.967443	109.175919	452.252472	545.683777
2857.970794	110.753952	451.784943	555.151917
2857.974134	111.689072	449.564026	565.146118
2857.977467	112.156631	449.739349	577.828735
2857.980820	113.676208	447.226166	591.037415
2857.984104	114.319107	445.531250	601.849792
2857.987439	115.546463	444.128601	611.493225
2857.990773	116.189362	440.212769	624.292786
2857.994129	117.299820	438.810059	636.215637
2857.997439	118.410294	435.887787	650.242493
2858.000769	118.877853	432.264160	659.009338
2858.004134	119.754532	427.647003	672.685547
2858.007461	120.923431	425.426086	686.420166
2858.010822	121.507889	421.276459	699.102844
2858.014133	121.800110	416.133240	710.382751
2858.017450	123.202805	410.464081	722.364075
2858.020766	123.611923	407.015778	734.462280
2858.024108	124.547043	400.703705	750.593201
2858.027436	124.663940	394.976044	761.347107
2858.030766	125.189941	389.189941	771.867310
2858.034103	125.482178	382.059601	787.764404
2858.037448	126.008179	374.987732	800.622375
2858.040791	126.826416	368.558746	812.545227
2858.044122	126.826416	361.311523	827.916382
2858.047468	127.118637	353.187622	837.559937
2858.050801	127.644653	344.713043	850.768494
2858.054097	127.293976	336.238464	863.217407
2858.057429	127.703094	326.711884	874.263611
2858.060776	127.761536	317.243744	885.134460
2858.064096	127.469315	307.424927	899.862610
2858.067434	127.878433	297.547638	911.084106
2858.070765	127.644653	286.969025	918.448303
2858.074096	127.644653	275.630615	929.260681
2858.077454	127.644653	263.590881	943.521362
2858.080790	127.586212	252.544739	955.093506
2858.084118	127.293976	240.446533	965.905884
2858.087451	126.767975	228.231445	977.594971
2858.090768	126.534195	215.607254	987.764465
2858.094096	125.949738	202.281708	996.589661
2858.097468	125.365280	188.663940	1005.005859
2858.100769	124.605499	176.682648	1012.720581
2858.104089	124.547043	161.662201	1021.429016
2858.107425	123.611923	148.278198	1030.429565
2858.110764	122.326126	133.666870	1041.066528
2858.114113	121.917007	119.698425	1047.437134
2858.117003	120.105209	105.437759	1053.281738
2858.120333	119.637634	90.651077	1061.522461
2858.123667	118.585617	75.630630	1064.853882
2858.127042	117.007599	60.727062	1071.458130
2858.130337	115.371124	46.291058	1074.672607
2858.133701	113.968445	31.504383	1083.205688
2858.137002	113.208649	15.841030	1086.127930
2858.140358	111.046173	0.820576	1089.926880
2858.143670	109.117477	-14.550554	1091.855591
2858.147003	106.955002	-29.103447	1093.550537
2858.150334	104.734070	-44.474575	1094.251831
2858.153676	103.272949	-59.611923	1096.648193
2858.156999	101.461136	-74.047928	1095.654541
2858.160333	99.123322	-88.659264	1094.894775
2858.163667	96.785507	-103.270599	1094.485718
2858.167000	95.207474	-118.115723	1091.271118
2858.170334	92.928116	-131.324371	1090.628296
2858.173660	91.057861	-145.059036	1094.018066
2858.176996	88.310928	-159.378143	1086.829346
2858.180331	85.622444	-172.177673	1087.706055
2858.183677	83.284622	-186.087677	1078.763916
2858.186997	81.005264	-198.887192	1076.367554
2858.190324	79.602570	-211.452957	1070.055542
2858.193659	76.797195	-224.252472	1062.691284
2858.197023	74.225601	-235.590881	1054.567505
2858.200331	72.355347	-248.741089	1050.417847
2858.203661	69.783752	-260.137939	1042.819946
2858.206994	67.913498	-270.541199	1034.988281
2858.210328	65.458794	-281.470490	1030.604858
2858.213658	62.594975	-292.049072	1018.331360
2858.216989	60.607830	-302.569275	1008.804749
2858.220321	58.328461	-312.271179	999.336670
2858.223653	56.282875	-321.622437	991.446533
2858.226994	54.061951	-330.447693	981.686157
2858.230327	52.074810	-339.506714	968.009888
2858.233653	50.087669	-348.039734	958.191162
2858.236985	47.983635	-355.812958	947.086426
2858.240326	45.704266	-364.696655	935.923401
2858.243659	43.424896	-371.476318	925.403259
2858.246989	41.320862	-378.957336	914.064819
2858.250325	39.801285	-386.555237	903.720032
2858.253652	37.405025	-392.516663	889.868469
2858.256987	35.534775	-398.653412	877.887207
2858.260317	33.722969	-402.978363	866.957886
2858.263688	31.385155	-408.472229	850.885437
2858.266985	29.631794	-413.264771	838.436523
2858.270325	27.469315	-418.232605	826.163025
2858.273659	25.189947	-422.616028	812.486877
2858.276985	23.202805	-426.473389	799.804199
2858.280321	22.033897	-430.681458	789.283997
2858.283651	20.631208	-434.305054	776.133789
2858.286982	18.001167	-437.519562	762.048462
2858.290312	16.072472	-440.441864	750.826965
2858.293653	15.254236	-442.078308	735.514282
2858.296983	13.208650	-446.052612	723.883667
2858.300317	11.747515	-447.981262	714.298584
2858.303648	9.409702	-448.331940	701.849792
2858.306999	8.357685	-450.611328	688.290405
2858.310315	7.071886	-453.182953	678.354736
2858.313646	5.610754	-453.124481	664.152527
2858.316979	4.850964	-453.825806	650.710083
2858.320310	2.980713	-455.696075	639.196350
2858.323650	2.045586	-456.105194	627.565735
2858.326979	0.818235	-456.806519	616.753296
2858.330372	-0.584454	-455.637604	604.187561
2858.333655	-1.285797	-455.637604	593.667419
2858.337017	-2.454704	-455.111603	583.264160
2858.340308	-2.922268	-454.877869	570.289246
2858.343643	-4.441849	-453.007629	559.535339
2858.346980	-5.435421	-454.819397	551.703674
2858.350332	-6.195210	-453.182953	538.436523
2858.353646	-6.721218	-452.247833	528.968384
2858.356984	-7.539452	-450.552917	518.506714
2858.360313	-8.357685	-449.851532	509.739929
2858.363648	-9.175922	-450.786652	499.102875
2858.366977	-9.994156	-447.981262	491.095825
2858.370310	-10.753944	-446.403290	482.562836
2858.373638	-11.046173	-445.994141	470.406219
2858.376976	-12.273525	-442.721191	462.983612
2858.380318	-12.331970	-441.435394	451.762115
2858.383636	-12.974869	-439.974274	444.281097
2858.386975	-13.383987	-437.811829	435.222107
2858.390306	-14.026886	-435.298645	427.682648
2858.393646	-14.552895	-434.889526	419.734070
2858.396972	-15.137348	-433.603729	411.142609
2858.400309	-15.254238	-431.207489	402.901794
2858.403650	-16.014027	-429.687897	396.239044
2858.406971	-16.014027	-428.343628	388.348907
2858.410339	-16.540035	-425.655151	382.270599
2858.413645	-17.066044	-422.616028	374.614258
2858.416975	-17.708942	-421.914673	368.126831
2858.420308	-17.942722	-417.940399	360.061371
2858.423655	-18.468731	-416.479248	354.450623
2858.426969	-18.702515	-413.907654	346.969604
2858.430300	-19.696083	-412.738739	342.936890
2858.433641	-20.280537	-410.634735	336.916992
2858.436966	-20.397427	-408.881348	329.494476
2858.440304	-20.689655	-406.017517	323.240784
2858.443633	-21.391003	-404.439514	319.558746
2858.446967	-21.215664	-402.744598	313.538879
2858.450298	-21.449444	-399.880768	308.512573
2858.453646	-21.683224	-397.542938	302.726471
2858.456963	-22.092346	-396.549377	297.641754
2858.460299	-22.209236	-393.685577	292.615417
2858.463635	-23.027470	-391.756866	288.699585
2858.467031	-22.793690	-389.185272	284.549988
2858.470299	-23.378143	-388.951477	280.575684
2858.473636	-23.787258	-386.847473	275.257172
2858.476968	-23.553474	-383.282288	271.750427
2858.480302	-23.904148	-383.048492	268.652832
2858.483633	-24.196377	-379.950897	263.860321
2858.486970	-23.962597	-378.197540	259.535370
2858.490303	-24.313267	-375.918152	257.139099
2858.493633	-24.430161	-374.690796	252.931030
2858.496979	-24.313267	-372.586792	248.547638
2858.500295	-25.131504	-371.476318	245.274689
2858.503628	-24.956165	-370.190552	242.352417
2858.506959	-25.189945	-368.086487	239.137939
2858.510292	-25.365284	-366.625366	236.917007
2858.513623	-25.540623	-365.105774	233.527176
2858.516959	-25.423725	-362.826416	230.020462
2858.520294	-25.365284	-361.715942	228.267105
2858.523624	-25.599064	-359.495026	224.994171
2858.526964	-26.066628	-359.611938	222.130325
2858.530293	-26.125076	-356.689667	220.143188
2858.533624	-26.651081	-354.702515	218.097595
2858.536958	-26.241966	-353.066040	215.409119
2858.540307	-25.891296	-352.014038	212.895981
2858.543640	-26.241966	-351.371124	210.791931
2858.546957	-26.534191	-349.676208	209.389236
2858.550285	-26.651081	-350.260651	207.226761
2858.553629	-26.943310	-346.637054	203.836945
2858.556960	-26.475750	-346.578613	202.843369
2858.560288	-26.534191	-345.000580	200.973114
2858.563623	-27.118645	-344.357666	198.985977
2858.566958	-27.235535	-342.195221	197.700180
2858.570287	-27.761547	-341.026306	195.303909
2858.573624	-27.293983	-341.610748	194.076569
2858.576956	-27.177094	-340.675629	192.790771
2858.580288	-28.053768	-339.857391	191.680313
2858.583639	-28.696671	-339.039154	191.095856
2858.586958	-28.229107	-337.928680	189.634720
2858.590284	-28.755116	-337.519562	188.348923
2858.593623	-28.638222	-336.993561	188.524261
2858.596953	-28.638222	-335.766205	187.063126
2858.600286	-29.047344	-335.298645	185.660431
2858.603621	-29.105785	-334.246613	184.491531
2858.606956	-29.164234	-333.895966	185.251312
2858.610329	-30.099358	-333.194641	183.381073
2858.613615	-29.456459	-333.311493	183.205734
2858.616959	-29.573349	-332.317932	181.569260
2858.620317	-29.982468	-332.551727	182.913498
2858.623622	-30.157803	-331.791931	180.809479
2858.626971	-30.391582	-331.791931	179.699020
2858.630279	-30.333141	-331.441254	179.348328
2858.633617	-30.157803	-330.915253	180.225006
2858.636952	-30.391582	-330.213898	179.173004
2858.640282	-30.976036	-329.746338	178.705444
