time (s)	magX	magY	magZ
5721.787269	27.235535	183.520752	731.013977
5721.790601	30.274693	193.690247	721.019897
5721.793939	32.320278	204.502640	712.311462
5721.797266	34.365868	214.613693	702.784912
5721.800602	35.768555	223.263580	693.141418
5721.803939	38.223259	233.725311	682.855042
5721.807266	40.210403	242.550537	671.107483
5721.810605	41.671535	251.200470	661.171814
5721.813963	43.717125	259.382843	648.839844
5721.817269	44.944473	266.104034	637.267639
5721.820601	45.996490	273.468140	626.805969
5721.823933	47.691406	280.540039	616.168884
5721.827284	48.918762	287.085937	602.551086
5721.830601	50.438339	293.631805	590.335999
5721.833932	51.256577	298.716553	580.166565
5721.837263	52.659264	304.677979	568.945068
5721.840606	53.535942	309.762726	556.788452
5721.843933	54.646408	314.029236	546.326660
5721.847265	55.464638	317.360596	534.403809
5721.850597	56.107536	321.568665	521.604248
5721.853944	56.575104	325.367615	510.382812
5721.857302	56.984219	327.647003	501.265350
5721.860597	58.211571	330.744598	488.933380
5721.863928	58.562241	333.783752	476.367615
5721.867268	58.912914	334.368225	466.841034
5721.870623	59.964931	336.822937	454.099945
5721.873929	60.257156	337.758057	445.040894
5721.877264	60.666275	339.219177	433.410278
5721.880596	60.724720	339.452942	424.234344
5721.883947	61.367622	340.797211	412.954437
5721.887261	61.893631	341.381653	402.726471
5721.890597	61.075394	340.680298	393.141449
5721.893924	61.659847	341.089417	383.030396
5721.897264	61.542957	340.680298	373.270020
5721.900592	61.659847	340.037415	365.438354
5721.903923	61.542957	338.751617	354.859741
5721.907257	61.776741	337.290497	346.034485
5721.910592	61.893631	336.472229	336.916992
5721.913925	61.601402	334.894226	328.267120
5721.917262	61.718292	334.192871	319.734070
5721.920601	61.250732	331.679718	311.434814
5721.923931	61.016953	330.803040	302.609589
5721.927258	61.192287	329.341888	295.245453
5721.930590	60.958504	326.653412	286.361786
5721.933928	60.958504	324.198700	277.945648
5721.937260	60.666275	322.796021	270.990631
5721.940589	59.672707	320.107544	264.327881
5721.943944	59.438923	319.230865	257.781982
5721.947258	59.380478	316.133270	250.008759
5721.950587	59.146698	313.970795	244.573334
5721.953918	58.211571	310.230286	238.085922
5721.957252	57.627117	307.950928	232.007614
5721.960590	57.218002	305.729980	224.877274
5721.963920	57.802452	302.632385	219.558746
5721.967255	57.101109	299.651672	214.123337
5721.970589	56.808884	297.547638	208.337219
5721.973917	56.165985	294.625366	203.018692
5721.977253	55.756866	291.703094	198.050858
5721.980599	55.639977	289.248413	192.732315
5721.983913	55.172413	286.326141	187.472244
5721.987264	54.704849	283.462311	182.679718
5721.990584	53.769722	281.592041	178.354767
5721.993919	53.886612	278.319092	172.860901
5721.997253	53.126823	275.981293	168.477493
5722.000584	52.600815	272.299255	164.912323
5722.003913	52.425484	270.779663	161.464050
5722.007248	51.665691	267.214508	156.554642
5722.010590	51.373466	265.636475	153.573944
5722.013919	50.905903	263.298676	149.132095
5722.017252	50.321449	260.084167	145.099365
5722.020585	49.678551	256.577454	141.125076
5722.023940	49.035652	255.350098	137.033905
5722.027244	49.386322	252.544739	134.637634
5722.030576	48.684978	249.330231	131.247818
5722.033912	48.509644	246.933960	127.916428
5722.037248	47.866745	244.537689	125.111053
5722.040581	47.516071	242.550537	122.422562
5722.043906	47.165398	240.095856	118.039162
5722.047248	46.990063	237.524261	116.285797
5722.050579	46.054939	235.361786	113.305092
5722.053914	46.054939	233.023956	111.317940
5722.057248	45.821159	231.153717	108.220337
5722.060575	45.295151	229.166565	105.882523
5722.063914	45.119812	226.711884	103.077148
5722.067276	44.360023	224.257172	101.499123
5722.070579	44.184685	221.568665	99.102867
5722.073910	44.301575	219.873779	96.239044
5722.077246	43.717125	218.237289	94.836357
5722.080573	43.308006	216.191711	93.784340
5722.083904	43.074226	214.496796	90.628288
5722.087245	42.665108	212.977203	89.108711
5722.090574	41.788429	211.866745	87.355347
5722.093908	41.554646	209.236710	85.426659
5722.097241	41.379311	208.067810	84.023972
5722.100573	41.087082	206.898895	82.445938
5722.103911	40.970192	205.028641	81.569260
5722.107243	40.970192	202.983063	79.523674
5722.110600	40.970192	201.755707	77.361191
5722.113903	40.210403	200.586807	75.900063
5722.117250	40.327293	199.125656	74.848038
5722.120570	39.742840	197.138504	73.503799
5722.123900	39.742840	196.378738	71.984222
5722.127238	39.742840	195.443588	71.165985
5722.130571	39.099941	193.924026	70.172417
5722.133904	39.567505	192.638214	68.769730
5722.137238	38.632378	190.826431	67.776161
5722.140574	38.457043	190.534195	66.665695
5722.143907	38.632378	188.430145	66.431915
5722.147239	38.340149	187.904160	64.970772
5722.150572	37.872589	186.618362	63.743423
5722.153930	37.580360	185.566345	62.457626
5722.157237	37.580360	184.631210	61.580944
5722.160576	37.405025	183.696091	61.171829
5722.163901	36.995907	182.760971	60.002922
5722.167233	37.054352	181.942734	59.710693
5722.170569	37.054352	180.890717	59.301579
5722.173895	37.405025	180.247818	57.489769
5722.177234	36.645237	179.429596	56.788425
5722.180572	36.586792	178.436005	56.613087
5722.183966	36.586792	178.319107	56.671535
5722.187247	36.294563	177.150208	55.794853
5722.190564	36.411453	176.331985	54.567505
5722.193901	36.762127	176.156631	54.684395
5722.197264	36.411453	175.747528	53.924603
5722.200562	36.002338	174.637070	54.392166
5722.203908	36.060783	174.344833	53.457039
5722.207230	35.827000	174.227936	52.229691
5722.210564	35.710110	173.994171	52.054352
5722.213893	36.060783	172.942154	51.469898
5722.217231	36.528343	173.117477	51.528343
5722.220562	35.768555	173.117477	50.476326
5722.223891	35.943893	172.240799	51.820568
5722.227233	36.411453	171.305664	50.710110
5722.230561	36.469898	171.656357	50.593220
5722.233895	35.827000	171.188797	50.593220
5722.237229	35.768555	170.779663	51.177670
5722.240574	35.593220	170.955002	50.651665
5722.243891	36.060783	170.604340	50.184101
5722.247232	35.885445	170.662766	49.424313
5722.250558	36.119228	170.779663	50.184101
5722.253943	36.177673	170.896561	50.768555
5722.258517	35.651665	170.955002	50.184101
5722.261878	35.651665	170.955002	50.125656
5722.265272	36.002338	170.662766	50.593220
5722.268629	35.710110	171.656357	50.417881
5722.271552	35.593220	171.422562	50.943890
5722.274884	35.885445	171.656357	51.002335
5722.278588	36.528343	171.364120	51.236118
5722.281962	36.119228	172.416122	51.879017
5722.284872	36.937462	172.123917	52.346581
5722.288513	35.943893	172.883682	52.054352
5722.291938	36.236118	173.292816	52.755695
5722.294856	36.762127	173.818817	52.814144
5722.298180	36.469898	174.169510	52.989475
5722.301480	37.054352	174.227936	52.814144
5722.305183	36.820572	174.812393	52.521915
5722.308146	37.112801	175.279968	54.099941
5722.311855	37.346581	175.981293	54.216831
5722.314777	37.463470	176.799545	55.268848
5722.318144	37.405025	177.676208	55.911743
5722.321482	37.814144	178.319107	55.268848
5722.324859	38.398598	178.728241	56.437756
5722.328079	38.515488	179.955582	57.431328
5722.331845	38.573933	180.364716	57.548218
5722.334769	38.749268	180.364716	58.600235
5722.338081	39.099941	181.767395	59.476913
5722.341419	39.041496	182.702530	59.769142
5722.344806	39.450615	183.812988	60.704266
5722.348173	39.392166	184.864990	61.580944
5722.351413	39.801285	185.917007	62.399178
5722.354735	40.561073	186.793701	62.983631
5722.358062	40.794857	187.611923	64.152542
5722.361424	40.911747	189.306839	65.146111
5722.364755	41.028637	190.300400	65.964348
5722.368183	41.203972	190.943329	66.899475
5722.371476	41.496201	192.988907	68.185272
5722.374815	41.905319	194.391602	69.646408
5722.378098	42.489773	195.034485	70.464645
5722.381400	43.015778	196.846298	72.042664
5722.384753	42.957336	198.424332	73.503799
5722.388086	43.132671	198.950317	74.146698
5722.391499	43.366451	200.820572	76.659851
5722.394823	43.717125	202.281708	77.536530
5722.398139	44.126240	203.158386	78.588547
5722.401388	45.119812	205.496201	80.283463
5722.404723	45.236702	206.840454	81.160141
5722.408059	45.645821	208.009354	83.147285
5722.411405	45.704266	209.996490	85.017532
5722.414750	46.814728	211.457626	86.303329
5722.418131	46.697838	213.152542	88.699593
5722.421496	47.574516	215.373474	90.277618
5722.424830	47.925190	217.419067	92.790771
5722.428069	48.158970	219.172424	94.953247
5722.431398	48.275864	221.451797	96.765053
5722.434759	49.152542	223.029816	99.453537
5722.438079	49.327877	224.374069	101.440674
5722.441414	49.970779	226.711884	103.486275
5722.444808	50.672119	228.757477	105.064293
5722.448144	51.315018	231.387512	108.512566
5722.451425	51.315018	233.666870	111.493286
5722.454720	51.899475	234.660431	114.181763
5722.458062	52.542374	237.582703	116.811813
5722.461413	53.068382	240.855621	119.324959
5722.464741	53.652832	241.206329	122.364113
5722.468072	54.237289	244.011688	125.052605
5722.471485	55.113968	247.635315	128.559326
5722.474809	55.581532	248.921082	131.832260
5722.478054	56.691994	251.083588	135.689667
5722.481383	56.925774	254.356506	137.735245
5722.484713	57.744011	256.168335	141.300415
5722.488100	58.036236	258.564575	145.274689
5722.491423	59.205139	260.843964	149.132095
5722.494791	60.140266	263.590881	152.697250
5722.497658	60.257156	266.337799	156.729980
5722.501387	60.549385	269.435425	160.295151
5722.504292	61.367622	272.123932	165.964355
5722.507623	62.478085	274.052612	170.172409
5722.510959	63.062538	277.150208	173.445358
5722.514305	63.763882	279.604919	178.354767
5722.517618	64.406784	282.410309	184.023956
5722.520961	65.108124	285.215668	189.400940
5722.524310	65.926361	287.787262	193.784348
5722.527642	66.978378	289.949738	199.395096
5722.530980	67.621277	292.521332	204.070724
5722.534323	68.322617	294.859161	210.265930
5722.537619	68.556396	297.722961	215.642883
5722.540956	69.082405	300.528351	221.312103
5722.544289	70.368210	301.872589	228.150208
5722.547621	70.894211	305.087097	234.111633
5722.550948	72.063126	306.898895	239.488617
5722.554291	72.238457	309.704254	247.495605
5722.557629	72.881355	312.392761	252.755707
5722.560964	73.991821	315.665710	259.769135
5722.564312	74.810051	316.776154	268.185272
5722.567634	75.452950	319.230865	274.380493
5722.570947	75.978958	321.568665	282.679718
5722.574296	77.089417	323.029816	290.277618
5722.577627	78.141434	324.958496	296.823486
5722.580948	78.725891	326.828766	305.707214
5722.584289	79.485687	327.939209	314.181763
5722.587615	79.777908	330.744598	321.954987
5722.590940	80.187027	331.445953	330.838684
5722.594327	80.946808	332.497955	338.845703
5722.597650	81.765045	333.959076	347.261841
5722.600977	82.115723	334.660431	355.677979
5722.604277	82.992401	335.361786	366.373474
5722.607653	83.635300	335.770905	377.536530
5722.610943	84.044418	336.764465	386.770905
5722.614275	84.628876	336.939789	396.239044
5722.617621	85.213326	336.238464	406.759216
5722.620958	85.622444	335.946228	416.811798
5722.624277	85.914673	335.712433	426.805969
5722.627639	86.499123	334.368225	436.917023
5722.630973	86.499123	333.900665	448.196930
5722.634296	87.375809	331.562836	457.781982
5722.637686	86.849792	330.101685	470.640015
5722.640950	87.375809	328.465240	482.270599
5722.644274	87.200470	325.718292	493.609009
5722.647609	87.668030	322.912903	505.648773
5722.650965	87.200470	318.880188	514.415527
5722.654277	87.200470	316.659271	529.026855
5722.657611	87.142029	314.029236	539.547058
5722.660950	86.674461	309.295166	551.820557
5722.664304	86.908241	304.911743	563.334290
5722.667628	86.499123	300.294586	572.568604
5722.671010	85.914673	294.450043	584.608398
5722.674282	85.797775	289.832855	594.953247
5722.677607	84.979538	282.410309	607.518982
5722.680972	83.985977	276.857971	620.143127
5722.683855	83.635300	269.902985	630.020386
5722.687175	83.109291	262.538879	642.819946
5722.690511	82.174164	255.174774	652.931030
5722.693867	80.946808	247.693726	665.204529
5722.697182	80.070129	238.459381	676.309143
5722.700513	78.667442	230.218597	687.121582
5722.703846	77.556984	220.516663	696.998840
5722.707181	76.446518	210.405624	705.765625
5722.710516	74.751602	200.995911	717.688416
5722.713840	73.173584	191.060196	724.877258
5722.717178	71.595558	180.130920	736.215637
5722.720510	70.192871	169.961441	744.456421
5722.723864	68.439507	158.213913	752.580322
5722.727230	66.627701	146.875519	759.944458
5722.730523	64.874344	134.894211	768.419006
5722.733841	62.653419	122.796036	776.250732
5722.737196	60.783165	110.230270	782.445862
5722.740506	58.503799	97.781418	789.868469
5722.743836	56.458210	84.981873	793.199829
5722.747183	54.003506	72.065460	799.219727
5722.750512	51.490356	59.441265	805.414917
5722.753843	48.684978	46.115719	809.506042
5722.757178	46.873173	32.731739	812.077759
5722.760512	44.476913	18.938633	815.759766
5722.763844	41.320862	5.788429	818.798950
5722.767170	39.742840	-7.303331	820.318542
5722.770504	36.762127	-20.745762	822.481018
5722.773838	34.541203	-34.421974	821.604248
5722.777171	31.268263	-47.747517	824.994141
5722.780518	27.703096	-61.482170	822.714722
5722.783839	25.014610	-74.398598	821.136719
5722.787166	22.501461	-86.964355	819.383362
5722.790503	19.696083	-99.997665	816.052002
5722.793837	17.299824	-112.797195	815.876587
5722.797169	14.669784	-125.246048	810.616638
5722.800504	11.981297	-137.110458	806.408508
5722.803834	9.234365	-149.033310	800.037964
5722.807166	6.312098	-160.079483	796.940369
5722.810501	4.091173	-171.710114	791.388062
5722.813833	0.759789	-182.697830	783.497925
5722.817166	-1.227352	-193.101105	776.776733
5722.820507	-3.857395	-202.861481	768.945068
5722.823865	-6.428989	-213.206299	760.704285
5722.827166	-8.416130	-222.966690	752.814148
5722.830504	-11.396843	-232.259506	743.287537
5722.833832	-13.500877	-240.617172	736.332520
5722.837166	-15.546467	-249.559326	724.234314
5722.840504	-17.533607	-257.390991	719.091187
5722.843837	-19.579193	-265.164215	706.583862
5722.847162	-21.391003	-271.534760	695.771423
5722.850500	-23.319695	-278.022217	686.537109
5722.853825	-25.365284	-284.918762	674.964905
5722.857165	-27.644657	-290.237274	663.275818
5722.860501	-28.755116	-296.607819	652.580322
5722.863853	-30.450031	-302.101685	641.826355
5722.867181	-31.794270	-307.537109	630.254211
5722.870498	-33.430740	-311.452942	619.208008
5722.873827	-34.716545	-315.251892	607.168274
5722.877170	-35.885448	-318.992401	595.362366
5722.880502	-38.281704	-322.557556	582.270569
5722.883828	-39.158390	-325.421387	573.094604
5722.887168	-39.918179	-327.817657	561.054932
5722.890500	-40.794857	-330.973694	548.956726
5722.893829	-42.080654	-332.610168	536.858521
5722.897180	-42.723553	-335.415558	526.163025
5722.900491	-44.067799	-336.000000	513.889526
5722.903827	-44.593807	-337.168884	503.953857
5722.907161	-45.528934	-338.805389	491.037415
5722.910496	-45.879604	-340.383392	478.588531
5722.913825	-46.931622	-340.675629	467.659241
5722.917158	-47.340733	-340.850952	456.613068
5722.920492	-48.392750	-341.435425	446.794281
5722.923818	-48.509640	-341.669189	437.326111
5722.927161	-48.743427	-340.909393	425.286407
5722.930534	-49.094097	-340.266510	414.240234
5722.933820	-49.736996	-339.448273	404.538300
5722.937153	-50.263004	-338.396240	394.135010
5722.940524	-50.613674	-338.104034	383.907074
5722.943823	-49.503216	-336.350677	374.205139
5722.947158	-50.964344	-336.175323	366.256592
5722.950488	-50.964344	-334.655762	356.846863
5722.953846	-51.899471	-332.376373	346.209808
5722.957150	-51.081234	-330.798340	338.436584
5722.960487	-50.964344	-329.980133	328.442444
5722.963820	-50.321453	-327.350067	321.545868
5722.967158	-50.789013	-326.648743	312.369965
5722.970487	-50.672123	-324.018707	306.466980
5722.973827	-50.964344	-321.213318	296.472809
5722.977149	-50.146114	-319.869080	290.628296
5722.980487	-50.555233	-318.057251	282.387512
5722.983843	-49.853886	-315.894775	274.497375
5722.987156	-49.970776	-311.978943	266.665710
5722.990480	-49.736996	-310.459351	260.178253
5722.993840	-49.736996	-307.887787	252.755707
5722.997162	-49.094097	-305.725311	247.378723
5723.000484	-49.620106	-303.270599	242.644653
5723.003815	-48.977207	-300.289886	236.449448
5723.007148	-49.035656	-297.835175	230.137360
5723.010482	-48.334309	-295.789581	224.526611
5723.013813	-47.749859	-293.451782	218.214493
5723.017152	-47.691410	-291.581512	213.246643
5723.020483	-47.749859	-288.425476	208.337219
5723.023816	-47.632969	-286.438354	202.901825
5723.027164	-46.931622	-284.100525	197.232620
5723.030483	-46.054935	-281.412048	193.433670
5723.033816	-45.704266	-278.080658	189.225601
5723.037146	-46.405613	-275.742828	184.433090
5723.040489	-46.230274	-272.995911	179.991226
5723.043811	-46.347172	-272.352997	174.614258
5723.047150	-45.528934	-270.307404	171.575104
5723.050478	-44.886028	-266.625366	167.483932
5723.053813	-44.886028	-265.047333	163.801865
5723.057146	-44.710697	-262.241943	159.418472
5723.060480	-44.184689	-259.436584	155.911758
5723.063814	-43.834019	-258.150787	153.690826
5723.067141	-43.132671	-255.929871	150.008774
5723.070512	-42.898891	-253.767380	146.326706
5723.073809	-43.366451	-252.130905	143.345993
5723.077143	-43.015781	-249.208649	140.014618
5723.080475	-42.840443	-247.455276	137.443008
5723.083828	-42.665112	-245.000595	134.579193
5723.087137	-42.898891	-243.714783	131.773819
5723.090476	-41.905315	-241.026291	128.442429
5723.093809	-41.028637	-238.688477	125.637054
5723.097143	-40.794857	-237.870255	123.533020
5723.100470	-41.087086	-235.941544	120.084747
5723.103808	-40.853298	-233.779068	118.272949
5723.107157	-40.444187	-232.610168	116.285797
5723.110470	-39.859730	-231.675049	114.590881
5723.113805	-40.268848	-228.226761	111.434837
5723.117137	-39.684391	-227.525421	110.032150
5723.120467	-39.450611	-225.888947	108.161903
5723.123882	-39.158390	-224.603149	106.291649
5723.127145	-39.099941	-222.849792	104.304504
5723.130469	-38.924610	-221.797775	102.492699
5723.133798	-38.866161	-219.985962	100.856224
5723.137144	-38.164814	-218.524841	98.985977
5723.140469	-38.749271	-216.537689	97.407951
5723.143806	-38.106373	-215.135010	95.479256
5723.147141	-38.223263	-214.959671	94.251907
5723.150508	-38.281704	-213.849213	92.498535
5723.153803	-38.106373	-212.388077	92.030975
5723.157140	-37.346584	-209.407349	90.452957
5723.160467	-36.995907	-208.939789	89.926941
5723.163798	-36.879017	-207.478668	88.290474
5723.167129	-36.995907	-207.654007	86.946236
5723.170467	-36.995907	-206.835754	85.894218
5723.173797	-36.586796	-205.491516	85.192871
5723.177130	-36.528347	-204.088837	84.725311
5723.180469	-35.885448	-203.387482	83.848633
5723.183795	-35.943890	-201.575684	82.562828
5723.187131	-36.119228	-201.283463	81.627708
5723.190463	-35.768559	-199.646988	80.809471
5723.193834	-35.710110	-199.471649	78.822327
5723.197127	-35.827000	-198.536530	78.530098
5723.200466	-35.943890	-197.776733	77.594978
5723.203797	-35.827000	-195.964935	76.776741
5723.207127	-35.651669	-197.075394	76.893631
5723.210461	-35.534779	-195.964935	75.023384
5723.213794	-35.710110	-194.796021	74.848038
5723.217128	-35.242550	-193.977783	73.971367
5723.220467	-35.476330	-194.503799	73.854477
5723.223791	-35.417889	-193.159546	72.919350
5723.227128	-35.768559	-192.575104	72.334892
5723.230461	-35.651669	-191.639969	71.516663
5723.233792	-35.651669	-191.406189	73.036240
5723.237151	-35.417889	-191.756851	71.341324
5723.240462	-35.125660	-191.055511	71.049095
5723.243797	-35.008770	-190.704849	70.815315
5723.247129	-34.950321	-190.178833	70.990646
5723.250461	-35.008770	-190.821732	70.698425
5723.253794	-35.242550	-190.412613	70.932205
