time (s)	magX	magY	magZ
9601.782541	-223.025131	-110.269432	121.156052
9601.785886	-224.252487	-110.853882	122.324959
9601.789208	-225.012283	-111.087662	123.435417
9601.792536	-226.181183	-110.912331	124.954994
9601.795871	-228.460556	-112.841026	127.760368
9601.799205	-229.044983	-112.256569	128.695496
9601.802533	-229.746338	-112.724129	129.805969
9601.805866	-230.739914	-112.724129	131.559311
9601.809205	-232.201050	-113.425476	133.488022
9601.812534	-233.194611	-113.659256	134.598480
9601.815868	-235.883102	-115.763290	137.286972
9601.819199	-236.409119	-115.120392	139.215668
9601.822533	-237.227356	-116.523079	141.436584
9601.825872	-239.214493	-116.406197	143.073059
9601.829193	-240.441849	-117.458206	145.995331
9601.832534	-241.786072	-117.808884	147.398010
9601.835866	-243.247223	-118.218002	149.560486
9601.839275	-244.766815	-119.036232	152.365875
9601.842533	-246.987732	-119.854469	154.528351
9601.845863	-247.981293	-120.205132	157.392181
9601.849200	-250.026886	-120.906479	160.080658
9601.852529	-252.481598	-121.607826	163.002930
9601.855865	-253.241364	-122.016953	165.808304
9601.859218	-255.812988	-122.952072	168.613678
9601.862533	-257.507874	-124.471642	172.237289
9601.865867	-259.495026	-124.997658	175.744019
9601.869193	-261.365265	-124.939217	179.133835
9601.872529	-263.644653	-125.874336	181.530106
9601.875860	-265.573334	-126.575676	185.738159
9601.879197	-267.502045	-127.277031	189.361786
9601.882533	-269.313843	-128.095276	193.277618
9601.885858	-271.651642	-128.679718	195.966110
9601.889220	-275.041504	-130.140854	199.998825
9601.892526	-275.684387	-130.491531	204.615997
9601.895862	-278.197540	-130.783752	208.005844
9601.899192	-281.412048	-131.835770	212.272369
9601.902528	-282.347168	-132.712448	216.772659
9601.905859	-285.327881	-134.641144	221.214493
9601.909204	-287.022797	-134.290482	226.416138
9601.912524	-287.665680	-134.933380	231.910004
9601.915858	-290.704865	-134.758041	236.644058
9601.919189	-293.685547	-135.985382	240.735245
9601.922531	-294.679108	-136.569855	245.527756
9601.925855	-297.192291	-136.920517	251.196960
9601.929189	-299.296326	-138.323196	255.931030
9601.932519	-301.049652	-138.147873	261.541779
9601.935856	-303.621277	-139.375229	267.912323
9601.939184	-306.134430	-139.784332	273.756866
9601.942525	-307.361786	-140.719467	278.900055
9601.945856	-309.524261	-141.654587	285.855072
9601.949188	-311.862061	-142.239044	292.693176
9601.952522	-315.193451	-143.174179	299.531281
9601.955856	-317.472809	-144.109299	307.129181
9601.959191	-319.343079	-144.167755	313.324371
9601.962522	-320.102875	-144.869095	319.578033
9601.965852	-321.622437	-144.869095	328.227936
9601.969186	-323.726471	-145.161316	334.072479
9601.972518	-325.129150	-145.336655	341.728821
9601.975873	-327.700775	-146.037994	349.209808
9601.979186	-329.337219	-146.622452	357.450623
9601.982516	-330.973694	-146.973129	366.275879
9601.985854	-331.850372	-146.271774	373.055511
9601.989189	-333.603729	-146.505554	382.406799
9601.992517	-335.181763	-147.382233	390.939789
9601.995846	-336.818237	-146.680893	401.109283
9601.999180	-338.630035	-146.213333	409.759186
9602.002519	-337.987152	-146.388672	418.409119
9602.005847	-338.571594	-146.388672	428.286377
9602.009182	-339.974274	-146.271774	438.397400
9602.012514	-341.201630	-145.102875	448.391602
9602.015843	-340.675629	-145.044418	457.742828
9602.019191	-341.260071	-144.167755	466.451233
9602.022511	-341.727631	-143.466400	476.912933
9602.025842	-341.669220	-142.765060	486.614868
9602.029178	-342.019867	-142.472824	500.174133
9602.032510	-340.441864	-141.420807	507.947388
9602.035845	-340.091156	-139.784332	520.220886
9602.039178	-339.974274	-138.849213	529.572144
9602.042522	-337.694916	-137.563416	540.735229
9602.045841	-336.233795	-135.926956	551.839905
9602.049178	-335.123322	-134.173584	562.886047
9602.052508	-333.077728	-132.537109	573.873779
9602.055848	-331.207458	-130.374634	586.088867
9602.059171	-329.278778	-127.744591	595.206299
9602.062536	-327.233185	-125.640556	607.246094
9602.065840	-323.492706	-123.244301	617.590881
9602.069177	-322.148437	-120.964928	628.870850
9602.072512	-318.232605	-118.510231	640.793701
9602.075841	-313.381653	-114.594383	649.034485
9602.079178	-309.933380	-111.730560	661.015808
9602.082505	-304.731720	-108.691399	674.165955
9602.085837	-300.406769	-105.301575	683.575684
9602.089171	-295.614258	-102.087074	696.433655
9602.092508	-290.763275	-98.580353	707.655151
9602.095841	-284.392731	-94.489182	715.253052
9602.099190	-277.671539	-89.988892	727.175903
9602.102506	-273.346558	-85.780823	733.371094
9602.105843	-266.040894	-81.806541	744.826416
9602.109169	-257.741669	-77.423141	753.184082
9602.112511	-249.851532	-73.273521	766.626526
9602.115834	-243.013428	-67.721214	772.120361
9602.119169	-234.421967	-63.396259	784.335449
9602.122500	-226.940964	-58.486847	793.803589
9602.125836	-217.706619	-52.408531	801.401550
9602.129171	-208.764465	-47.499126	805.901794
9602.132503	-199.179413	-41.829926	812.506165
9602.135836	-188.893036	-35.751606	822.617187
9602.139168	-179.074219	-30.783752	829.630615
9602.142508	-168.904739	-24.004091	833.429565
9602.145838	-159.027466	-18.334892	843.306885
9602.149165	-147.163055	-12.431911	844.358887
9602.152497	-136.233780	-6.645821	847.982483
9602.155836	-125.421387	-0.509059	852.541199
9602.159171	-113.556984	6.971946	856.164795
9602.162499	-101.049675	12.874928	860.431335
9602.165835	-89.828171	19.713032	862.944458
9602.169165	-78.431320	25.849794	868.672119
9602.172518	-66.976036	32.220341	866.100525
9602.175849	-54.176498	37.947983	869.315002
9602.179164	-42.545876	44.084743	868.146118
9602.182497	-29.980127	50.864407	871.769775
9602.185844	-17.823494	57.176502	869.315002
9602.189161	-5.783751	62.962593	867.269470
9602.192495	6.840445	69.099358	863.762695
9602.195829	19.581532	75.236122	864.639404
9602.199161	31.504383	81.314438	860.022217
9602.202494	43.719460	87.275871	860.840454
9602.205827	56.109879	93.178841	853.008789
9602.209159	68.149620	98.672714	849.151367
9602.212498	80.130920	104.458801	843.073059
9602.215841	91.761543	109.368210	837.462280
9602.219155	103.158386	115.271194	832.026917
9602.222494	113.970779	119.888374	825.831665
9602.225825	125.016945	125.674469	820.396301
9602.229160	136.998245	129.999405	815.311462
9602.232492	147.518417	135.201050	805.843384
9602.235826	157.220337	139.526001	797.777893
9602.239158	168.324951	144.201630	790.413818
9602.242509	178.436005	148.292801	780.594971
9602.245860	188.137939	152.500885	773.581482
9602.249161	197.898315	156.650497	763.470459
9602.252486	206.898895	160.157211	753.184082
9602.255828	215.548798	163.897720	745.644653
9602.259172	224.607849	167.345993	735.884277
9602.262487	232.264175	170.268265	726.123901
9602.265821	240.446518	173.716537	714.668640
9602.269160	247.752182	176.463470	704.499084
9602.272493	254.239624	178.859726	693.219177
9602.275821	260.960815	181.372879	681.763916
9602.279159	267.097595	183.827576	670.191711
9602.282495	274.111053	185.873169	659.729980
9602.285822	280.481598	188.853882	648.391602
9602.289177	284.806549	189.438339	635.533630
9602.292492	290.943298	191.016357	625.422607
9602.295818	295.151367	192.769714	613.499695
9602.299147	299.300995	194.406189	603.447083
9602.302490	303.918152	195.516663	592.693115
9602.305841	306.314453	196.568665	578.432495
9602.309145	310.522491	197.328461	567.503235
9602.312482	313.678558	197.620682	559.145569
9602.315824	317.594391	199.023376	547.164185
9602.319148	320.399750	199.257156	536.351807
9602.322483	322.386902	199.490936	525.305664
9602.325816	324.958496	199.783173	513.207520
9602.329147	327.413208	199.841599	503.622437
9602.332479	328.757446	199.783173	493.569855
9602.335816	330.744598	199.724716	482.757446
9602.339152	332.088837	200.192276	471.652832
9602.342477	332.030396	199.081818	461.074219
9602.345817	332.731750	198.906479	449.151367
9602.349150	333.666870	197.912918	441.378113
9602.352476	334.368195	198.263580	430.974884
9602.355812	334.309753	197.270004	421.682068
9602.359143	333.433075	196.685562	411.161896
9602.362481	334.017548	195.633545	402.628876
9602.365816	334.192871	194.639969	393.452972
9602.369146	333.082397	193.880188	382.523651
9602.372515	333.374634	193.061951	373.873779
9602.375830	333.140839	192.068375	366.451202
9602.379144	331.738159	190.899460	357.216827
9602.382474	330.569275	189.496780	347.865570
9602.385807	329.751038	188.737000	341.319672
9602.389145	328.874359	187.334305	331.267090
9602.392473	327.237854	186.516068	324.136749
9602.395811	326.828766	184.353592	315.311523
9602.399149	324.724731	182.892456	309.233185
9602.402475	322.912933	181.840439	301.343079
9602.405805	321.334869	180.671539	294.037384
9602.409143	320.633545	179.911743	287.140839
9602.412492	317.711273	177.866165	279.542938
9602.415810	316.250153	177.047913	272.880188
9602.419145	313.620117	175.236115	267.327881
9602.422470	313.678558	174.125656	260.022217
9602.425809	310.756287	172.372284	254.645233
9602.429140	308.710693	171.028046	248.625351
9602.432543	306.606659	169.450027	242.839264
9602.435807	305.028656	168.105774	236.644058
9602.439135	302.807709	165.884857	230.857971
9602.442468	301.054352	165.417297	224.545883
9602.445804	297.722992	163.839264	219.987137
9602.449136	296.554047	162.202789	215.077744
9602.452467	294.566925	161.384567	209.876083
9602.455825	292.112213	159.455872	204.732895
9602.459137	290.241974	158.871429	200.641739
9602.462475	287.202820	157.001160	195.498550
9602.465804	285.332550	155.890701	191.816483
9602.469132	283.579193	154.488007	186.614838
9602.472463	281.825836	152.968445	182.582108
9602.475799	280.481598	151.624191	178.315613
9602.479137	277.676208	150.163071	175.101105
9602.482467	275.396851	148.935715	171.419052
9602.485802	273.468170	147.942139	167.561661
9602.489134	271.422577	146.247223	163.996490
9602.492468	269.961426	145.078308	160.781998
9602.495804	267.448273	143.617172	157.216827
9602.499173	265.753357	142.740494	154.995911
9602.502467	264.759796	141.396255	151.313843
9602.505806	261.662201	140.052002	148.274689
9602.509130	259.967255	138.883102	144.066620
9602.512464	258.447693	137.597305	142.021042
9602.515796	255.700745	136.603729	138.689651
9602.519131	254.181183	135.551727	135.358261
9602.522461	252.720047	134.616592	133.546463
9602.525798	251.434250	133.447693	129.805969
9602.529130	249.505569	131.752777	127.585037
9602.532466	247.985977	131.635880	125.773232
9602.535791	246.466400	130.291641	123.260086
9602.539133	244.537704	129.531845	119.753357
9602.542477	242.667450	128.596725	117.064873
9602.545795	241.264771	127.310936	115.194626
9602.549129	239.862076	126.960258	113.382820
9602.552461	238.926956	125.499123	111.103447
9602.555793	236.530685	124.563995	109.174744
9602.559150	235.537125	123.862656	107.655174
9602.562466	234.134430	122.635307	106.018707
9602.565791	232.907074	121.466393	104.791351
9602.569124	231.329056	121.700172	104.031555
9602.572459	231.212158	120.297485	100.933960
9602.575794	229.458801	119.946815	99.706604
9602.579126	227.530090	118.544128	98.070129
9602.582460	226.419632	118.251900	96.550552
9602.585821	225.250748	116.907661	95.849213
9602.589121	223.614258	116.849213	94.621864
9602.592460	223.614258	115.504974	93.102280
9602.595792	222.328461	114.978966	92.576271
9602.599120	221.159546	114.394516	91.056694
9602.602450	219.698425	114.336067	89.537117
9602.605789	218.821732	113.810059	89.069550
9602.609120	218.295731	112.874931	87.900642
9602.612458	216.893051	112.699600	87.608414
9602.615785	216.016357	111.238464	86.556396
9602.619113	215.373459	111.296913	85.270599
9602.622459	214.964355	110.653999	84.218582
9602.625822	214.613678	110.069557	83.458794
9602.629117	213.503220	109.251312	81.646988
9602.632446	212.977203	108.900650	80.653419
9602.635793	211.632965	108.316185	79.718292
9602.639116	211.574509	108.257751	80.185852
9602.642450	210.230270	107.848625	79.016945
9602.645783	210.522507	106.971947	78.783165
9602.650417	209.470490	106.738167	78.023376
9602.653814	209.353592	106.971947	77.380478
9602.657165	209.470490	106.504387	77.205147
9602.660519	209.061371	105.978378	75.276443
9602.663475	207.658676	105.452377	76.445351
9602.667064	207.366455	104.867920	76.503799
9602.670437	207.483353	104.867920	75.977791
9602.673819	207.424896	104.867920	74.107536
9602.677146	207.366455	104.166573	73.756866
9602.680546	207.015778	103.932793	73.406197
9602.683487	205.788437	103.815903	73.347748
9602.687068	206.022217	103.991234	72.412621
9602.690414	206.431320	103.874344	73.055527
9602.693744	206.139114	103.056107	72.997078
9602.697179	205.963760	103.056107	72.763290
9602.700497	206.431320	102.530106	73.698418
9602.703807	206.080658	102.530106	73.230858
9602.707115	207.015778	103.172997	74.107536
9602.710440	206.372894	103.289886	72.821739
9602.713846	206.606674	102.763885	73.230858
9602.716748	206.606674	102.763885	74.049088
9602.720029	206.197540	102.588547	73.815308
9602.723388	207.483353	102.530106	74.049088
9602.726716	207.541794	102.880775	74.224426
9602.730391	207.074234	102.296318	75.159554
9602.733765	207.717133	102.530106	76.094681
9602.736671	207.658676	102.588547	74.750435
9602.740003	209.938049	102.705437	75.334885
9602.743316	208.886032	102.939217	76.036240
9602.746704	209.587372	103.231445	76.036240
9602.750031	209.587372	103.056107	76.971367
9602.753710	211.925186	103.465225	77.497368
9602.756627	210.756287	103.640564	77.964935
9602.759951	211.165405	103.348335	77.906487
9602.763305	212.743423	103.991234	79.601402
9602.766700	212.684982	103.757454	79.659851
9602.770044	213.853882	104.108124	80.594971
9602.773370	214.964355	104.634132	79.952072
9602.776627	215.490356	104.517250	81.646988
9602.779967	216.016357	105.101700	82.289886
9602.783285	217.009949	105.043251	82.932785
9602.786637	217.945068	105.510811	83.926353
9602.790010	218.763306	105.569260	85.212158
9602.793366	219.113968	105.861488	86.264175
9602.796702	220.282883	106.387505	87.666862
9602.800065	221.042679	106.504387	89.420219
9602.803287	222.445358	107.147285	89.361778
9602.806614	223.497360	107.673294	89.595558
9602.809986	225.367615	108.316185	92.459381
9602.813309	226.068970	108.199303	92.810051
9602.816639	227.004089	108.374634	93.686737
9602.820023	228.172989	108.783752	95.206314
9602.823382	229.166580	109.251312	98.537697
9602.826678	231.036819	109.952660	98.596146
9602.829949	231.738159	110.186440	99.239037
9602.833295	232.965515	110.770897	101.050850
9602.836613	234.192871	111.180016	102.862648
9602.839975	236.238449	111.998253	104.674461
9602.843313	237.407364	111.881355	105.901810
9602.846723	239.102295	112.524254	109.525421
9602.850018	240.738739	112.991814	109.817657
9602.853303	242.375229	113.868507	111.278778
9602.856614	243.485687	113.926949	113.616600
9602.859952	246.524826	114.745178	114.902397
9602.863305	246.817062	115.329643	117.532440
9602.866640	249.037994	115.738754	119.870255
9602.870046	251.317352	115.914085	121.740501
9602.873352	252.252472	116.732330	125.656334
9602.876678	253.713623	116.966110	127.935715
9602.879939	255.408539	117.375221	130.331985
9602.883288	257.103424	118.076569	134.072479
9602.886615	259.675049	119.654587	136.527176
9602.889997	261.545288	120.239052	138.338974
9602.893287	264.526001	120.648163	141.085922
9602.896696	266.104034	121.057274	144.475739
9602.900026	268.149628	121.933952	147.281113
9602.903272	270.136749	122.869095	150.261841
9602.906606	271.831665	123.628868	153.067215
9602.909939	273.818817	124.388664	156.690811
9602.913314	275.922852	124.505562	160.781998
9602.916632	277.851562	125.557571	164.464050
9602.920024	280.949158	126.551147	169.548798
9602.923349	282.936310	127.486267	172.354187
9602.926686	284.981903	127.895386	175.919342
9602.929941	288.196381	128.479843	180.828751
9602.933316	290.066620	128.888947	184.744583
9602.936599	292.638214	129.882523	188.718872
9602.939986	294.391571	130.642303	192.284042
9602.943294	296.554047	131.285217	197.135010
9602.946677	299.768555	131.577438	201.752197
9602.950006	302.047913	132.337219	207.538269
9602.953291	303.567505	132.921677	211.512573
9602.956596	307.074219	133.623032	216.421967
9602.959936	308.184692	134.032135	221.506714
9602.963292	310.054932	135.201050	226.474579
9602.966620	313.503204	135.902390	231.734665
9602.969998	315.665680	136.486847	238.631210
9602.973354	319.289307	137.246628	244.125061
9602.976299	321.159546	137.246628	249.502045
9602.979949	324.023376	137.655762	255.580353
9602.983284	324.841614	137.889542	263.119812
9602.986595	327.296326	138.590881	268.555237
9602.989948	329.575684	139.175323	275.627106
9602.993286	332.030396	140.402679	282.406799
9602.996212	334.660431	140.285782	290.355347
9602.999552	337.115143	140.285782	297.953247
9603.002857	338.167175	140.870239	303.680878
9603.006254	341.323212	140.870239	311.220337
9603.009924	342.492126	141.279358	319.168915
9603.013260	344.070129	141.162476	328.753967
9603.016180	346.524841	141.513138	336.760956
9603.019508	348.453552	140.987137	343.715973
9603.022838	351.551147	141.688492	352.424316
9603.026188	352.018707	140.928696	362.418457
9603.029531	353.479828	141.396255	369.256561
9603.032865	354.122742	141.104034	378.432495
9603.036191	355.057861	140.987137	389.244904
9603.039517	358.506134	140.168900	397.836365
9603.042829	357.863220	140.168900	406.077148
9603.046168	359.850372	139.467560	415.603729
9603.049507	358.915253	138.473984	426.708374
9603.052834	359.967285	138.123322	436.118042
9603.056181	361.019287	137.246628	446.579803
9603.059504	360.551727	136.428406	454.586792
9603.062902	360.785492	135.201050	467.444763
9603.066186	361.486847	133.915253	477.088257
9603.069530	361.545288	132.921677	487.549988
9603.072884	359.908844	131.869659	499.589722
9603.076169	360.142609	130.759201	511.804779
9603.079494	359.032166	128.655167	521.857422
9603.082849	357.220337	126.726479	531.793152
9603.086161	354.414948	125.148460	542.956177
9603.089487	352.661621	123.511986	557.275330
9603.092835	350.499115	120.998833	567.561707
9603.096163	349.330200	118.777916	577.614258
9603.099521	345.823486	116.732330	590.179993
9603.102864	344.245483	113.985390	600.875549
9603.106188	340.855652	111.296913	614.317932
9603.109524	336.822906	108.608421	625.364136
9603.112869	333.666870	105.861488	636.234985
9603.116172	329.634125	102.413216	646.872009
9603.119498	324.315613	98.848045	661.775574
9603.122824	320.224426	95.867332	671.769714
9603.126173	314.555237	92.419060	684.043274
9603.129493	308.301575	88.503220	694.914124
9603.132827	302.164825	84.295151	703.330261
9603.136178	297.372284	80.087090	717.941589
9603.139520	290.066620	76.171249	725.422607
9603.142861	283.462311	72.138519	736.176514
9603.146169	275.864410	67.346001	749.151367
9603.149502	268.266510	63.079483	756.223267
9603.152822	260.025696	57.994736	766.684998
9603.156187	251.901810	53.202221	777.263611
9603.159495	243.777908	48.409702	788.017517
9603.162825	234.309769	43.500290	795.849243
9603.166154	225.542969	37.772648	804.616028
9603.169494	216.834610	32.337231	812.213928
9603.172868	206.080658	27.252483	822.441833
9603.176176	196.612503	21.992401	828.695557
9603.179517	185.566345	15.797195	835.124451
9603.182815	175.163055	10.595558	844.183472
9603.186176	163.824661	4.341905	851.547668
9603.189497	153.012268	-1.911747	854.937439
9603.192861	141.849213	-8.457628	863.821167
9603.196160	130.393921	-14.126827	866.275818
9603.199493	118.120407	-20.088253	869.899536
9603.202818	106.665115	-26.049679	872.763306
9603.206175	94.976044	-32.069550	878.140320
9603.209508	82.468735	-38.498539	878.783203
9603.212847	70.370544	-45.161308	881.296326
9603.216198	58.447693	-50.596729	883.867859
9603.219487	46.524841	-57.025719	884.627686
