time (s)	magX	magY	magZ
3863.756444	-50.379894	-292.867310	804.304443
3863.759759	-48.451199	-282.522522	817.513123
3863.763101	-47.457630	-271.768555	828.559326
3863.766423	-44.360027	-261.423737	842.235474
3863.769757	-42.898891	-248.390396	851.878967
3863.773156	-41.145527	-236.642899	862.925171
3863.776423	-39.567501	-222.499115	873.620605
3863.779761	-36.879017	-208.939789	880.575684
3863.783091	-34.541206	-195.438919	888.582642
3863.786426	-33.372299	-180.827576	894.894836
3863.789757	-29.865578	-165.690231	901.148437
3863.793086	-27.878437	-150.377548	906.934448
3863.796429	-25.423725	-134.772644	911.259460
3863.799785	-23.495033	-118.758621	915.642883
3863.803087	-21.215664	-102.686142	915.759766
3863.806422	-18.877850	-85.035652	917.104004
3863.809755	-16.306255	-68.437172	919.909424
3863.813094	-14.085331	-51.604908	920.902954
3863.816423	-11.747517	-34.831093	918.214417
3863.819755	-9.059029	-16.420807	917.162476
3863.823090	-7.247223	0.995911	916.344177
3863.826420	-4.500294	17.886616	911.084106
3863.829762	-1.753361	36.180012	904.947388
3863.833085	0.642899	52.720043	899.336670
3863.836421	3.272938	69.786087	894.251831
3863.839755	4.850964	86.676788	886.829285
3863.843084	7.890121	103.742844	883.439453
3863.847686	12.215078	136.530685	864.269409
3863.851046	14.845119	152.427826	855.035034
3863.854392	16.656925	168.032730	842.469238
3863.857777	19.579193	182.760971	833.234924
3863.861156	21.507889	197.489197	820.844482
3863.864485	24.371712	210.931625	810.616638
3863.867795	26.241962	224.374069	796.823486
3863.871170	28.053768	238.225616	783.965454
3863.874518	30.566919	250.206909	769.821716
3863.877841	33.138515	262.421967	756.729980
3863.881162	34.891876	274.695496	743.696594
3863.884058	36.879017	285.098785	729.845093
3863.887772	38.807713	296.028046	714.941528
3863.891121	39.801285	304.970215	700.622375
3863.894416	40.911747	313.561676	685.718872
3863.897792	42.080654	322.679138	672.685547
3863.901108	43.541786	329.984833	655.911682
3863.904057	44.944473	337.348938	642.060181
3863.907374	46.113384	344.654602	626.163025
3863.911032	46.697838	350.206909	611.960815
3863.914384	47.282288	355.525421	596.122070
3863.917324	48.100525	360.668610	582.095215
3863.921093	48.801868	365.168915	567.600830
3863.923994	49.210987	369.318512	552.229675
3863.927335	49.620106	372.766815	539.254761
3863.930680	50.613678	375.513733	523.649841
3863.934362	50.613678	378.085327	510.324402
3863.937706	50.730568	380.130951	497.758636
3863.940620	50.847458	381.475159	481.686188
3863.943947	51.081238	382.293396	469.354156
3863.947370	51.431911	382.585602	456.087067
3863.950674	51.548801	383.111664	442.118652
3863.954011	51.724136	383.871460	430.254242
3863.957258	51.899475	382.877869	418.974274
3863.960593	51.256577	381.650482	405.882507
3863.963920	51.198128	380.715363	395.245453
3863.967280	51.373466	379.838684	381.510803
3863.970638	50.789009	378.494446	372.101105
3863.974043	50.496788	377.793121	360.002930
3863.977338	50.496788	373.935730	347.963165
3863.980662	51.022793	373.643494	336.507904
3863.983923	50.321449	369.961426	327.039764
3863.987250	50.146111	366.805359	316.402679
3863.990587	49.210987	365.636475	307.402100
3863.993947	49.678551	361.954407	296.940399
3863.997297	48.743423	360.201050	289.225616
3864.000659	49.035652	356.577454	278.939209
3864.004020	48.568089	353.070709	270.756866
3864.007275	48.334305	350.090027	262.223846
3864.010589	47.691406	346.583282	254.333725
3864.013919	47.691406	343.076569	244.982468
3864.017285	47.282288	339.452942	238.202789
3864.020611	46.990063	336.530701	231.130920
3864.023996	46.113384	333.316193	223.123917
3864.027337	45.996490	328.406769	216.636475
3864.030663	45.119812	325.133850	209.739914
3864.033916	44.418468	320.808899	202.434265
3864.037246	44.652248	316.250153	195.713043
3864.040588	44.184685	313.503235	190.219177
3864.043934	43.950905	309.061371	183.030396
3864.047272	43.950905	306.255981	178.237885
3864.050685	43.015778	302.515503	172.451782
3864.053992	42.255989	299.242554	165.964355
3864.057310	42.022209	295.034485	161.171829
3864.060589	41.379311	290.767975	154.918182
3864.063910	41.028637	287.085937	150.242554
3864.067238	39.742840	283.286957	145.800705
3864.070605	39.801285	279.955597	141.300415
3864.073939	40.035065	276.215088	137.793701
3864.077349	39.392166	272.825256	133.760956
3864.080691	38.398598	270.019867	129.143768
3864.083931	37.931034	266.630035	125.169487
3864.087240	37.580360	262.538879	121.604332
3864.090618	37.463470	259.850403	117.746933
3864.093932	36.586792	256.051422	113.305092
3864.097272	36.469898	253.304504	110.499710
3864.100661	35.827000	249.505554	107.226776
3864.103992	35.008766	247.459961	103.895386
3864.107315	34.950321	244.596161	101.440674
3864.110574	34.658092	240.680298	98.167740
3864.113913	33.781414	237.582703	94.777908
3864.117239	33.547630	235.420227	91.680305
3864.120613	33.080070	231.621277	89.342491
3864.123935	33.080070	229.692596	86.770897
3864.127322	32.904732	227.237885	84.608421
3864.130645	31.911163	224.432495	81.861488
3864.133929	32.320278	221.802460	80.283463
3864.137233	31.385155	218.938644	77.711868
3864.140566	31.502045	216.659271	75.841614
3864.143930	30.625364	214.496796	72.744011
3864.147260	30.450029	212.275879	71.107544
3864.150645	29.924021	209.821167	69.646408
3864.154006	29.982466	207.600250	67.776161
3864.157320	30.157803	205.496201	66.490364
3864.160573	29.222675	203.625946	64.678551
3864.163942	29.047340	200.879013	61.990063
3864.167237	28.638222	198.950317	60.762711
3864.170584	27.819988	196.904739	58.834015
3864.173930	27.878433	194.800690	57.782001
3864.177332	27.936878	193.281143	57.255989
3864.180671	27.586206	192.053787	54.976620
3864.184017	27.352425	189.540634	53.924603
3864.187256	26.534189	187.728821	52.229691
3864.190566	26.475744	186.092346	51.645233
3864.193905	25.891291	184.105209	50.476326
3864.197260	25.715954	183.345428	48.781414
3864.200605	25.189947	181.650513	47.261833
3864.203973	25.014610	179.488022	46.794270
3864.206895	25.189947	178.669800	45.040913
3864.210679	24.722383	176.974884	43.755116
3864.213918	24.897720	176.624191	44.398014
3864.217228	24.897720	174.520172	42.936874
3864.220588	24.547047	173.760376	42.235531
3864.223914	24.021040	172.007019	40.832844
3864.227273	24.196377	171.013443	41.183517
3864.230644	24.021040	169.143188	39.780827
3864.233518	23.436586	169.435410	39.605492
3864.236845	23.378141	167.448288	38.845703
3864.240202	23.436586	167.097595	37.209232
3864.243478	23.202805	166.337830	37.209232
3864.247232	23.144360	164.876678	36.917007
3864.250177	22.384569	164.759796	35.748100
3864.253477	22.443016	163.415543	34.929867
3864.256799	22.501461	163.006439	35.163647
3864.260131	22.735241	161.720627	33.994740
3864.263471	22.443016	161.136185	33.936291
3864.266855	21.917007	159.908829	33.468731
3864.270149	21.800117	159.558167	32.708942
3864.273518	22.209234	158.564590	33.001167
3864.276842	22.033897	157.921677	31.773817
3864.280133	22.209234	157.746353	30.897137
3864.283472	21.917007	156.869675	31.306253
3864.286812	21.741671	156.518997	30.546465
3864.290131	21.332554	156.343658	30.721800
3864.293484	21.507889	155.583862	30.078901
3864.296799	22.092342	155.759216	30.312683
3864.300133	21.507889	155.291656	30.838692
3864.303457	21.507889	154.765640	30.955582
3864.306821	21.507889	153.947403	30.078901
3864.310148	21.390999	154.005844	29.962011
3864.313540	21.507889	154.473404	29.611340
3864.316803	21.566336	153.772064	29.085331
3864.320131	21.332554	154.356522	28.617767
3864.323460	21.624781	153.421402	28.968441
3864.326796	21.390999	153.421402	29.319113
3864.330126	22.384569	153.362946	29.143776
3864.333459	21.858562	152.661606	28.793104
3864.336801	21.390999	153.772064	29.026886
3864.340156	21.449444	153.596741	28.500877
3864.343492	21.800117	152.603165	29.143776
3864.346812	21.624781	153.421402	28.676214
3864.350197	21.274109	153.421402	29.377558
3864.353458	21.215664	153.888962	30.020456
3864.356791	21.800117	153.772064	29.085331
3864.360130	21.858562	154.765640	29.786674
3864.363456	21.741671	154.707199	30.020456
3864.366808	21.800117	155.583862	29.494448
3864.370127	21.566336	155.408539	30.955582
3864.373496	21.683226	156.460556	30.078901
3864.376784	21.683226	157.103455	30.897137
3864.380154	22.209234	156.577438	30.721800
3864.383473	22.092342	157.103455	31.072472
3864.386810	22.267679	156.928116	31.598480
3864.390126	22.209234	159.032150	31.481590
3864.393462	22.676796	159.791946	32.299824
3864.396811	22.150787	159.733490	33.585621
3864.400122	22.618351	160.434845	34.170078
3864.403458	22.676796	161.545303	33.819401
3864.406784	22.559906	161.253067	33.644066
3864.410122	22.969023	163.240219	34.929867
3864.413472	23.027470	163.941559	35.689655
3864.416838	23.202805	164.350677	35.046757
3864.420142	23.728813	165.870255	36.040325
3864.423515	23.845703	165.987152	36.215664
3864.426794	24.313267	167.565170	38.495029
3864.430121	24.137930	168.909424	38.553474
3864.433482	24.137930	169.376984	38.378139
3864.436797	24.605494	170.662766	39.079483
3864.440122	25.014610	172.240799	41.241962
3864.443451	24.780828	172.942154	40.891289
3864.446782	25.306837	174.227936	41.183517
3864.450132	24.780828	175.396851	42.469315
3864.453472	25.949736	176.624191	43.462887
3864.456806	25.657509	178.143768	44.573349
3864.460221	25.949736	179.488022	45.683811
3864.463455	26.300407	180.364716	46.268265
3864.466784	26.475744	182.819397	48.080067
3864.470123	27.001753	184.046753	48.664520
3864.473440	27.352425	186.326126	49.424313
3864.476778	27.644651	187.962585	51.411453
3864.480117	27.819988	189.774399	51.995907
3864.483455	28.112215	191.644653	52.872585
3864.486774	28.112215	192.988907	53.983051
3864.490175	28.813559	194.625366	55.502628
3864.493463	30.040911	196.846298	56.788425
3864.496826	30.099356	199.184113	58.717125
3864.500117	30.099356	200.177673	61.054939
3864.503450	30.216248	202.573929	62.399178
3864.506772	30.508474	205.145538	64.503212
3864.510119	31.092928	207.366455	66.490364
3864.513453	31.443600	208.652252	68.652840
3864.516774	31.385155	211.340744	70.055527
3864.520143	31.735826	213.327866	71.750443
3864.523450	32.378727	215.431915	74.322037
3864.526794	32.378727	218.003525	76.016953
3864.529684	33.430740	220.867340	78.120987
3864.533021	33.313850	223.672714	80.400352
3864.536352	34.307423	225.659851	83.731735
3864.539710	34.482758	228.348328	84.842201
3864.543018	34.716537	231.387512	88.232033
3864.546348	35.067211	234.017548	90.628288
3864.549680	35.651665	236.413788	93.433670
3864.553020	36.294563	239.978973	97.115723
3864.556348	36.469898	243.427246	99.979546
3864.559680	36.528343	245.063721	102.726479
3864.563038	37.346581	248.336670	105.590302
3864.566347	37.521915	250.791351	108.454117
3864.569682	38.690823	254.824066	112.662193
3864.573010	39.099941	258.038574	116.227348
3864.576350	39.918175	261.428406	119.675636
3864.579679	40.794857	264.701355	124.175926
3864.583010	41.087082	268.792511	127.857979
3864.586343	41.379311	270.487427	132.592056
3864.589681	42.197544	274.578613	136.800125
3864.593016	42.723553	277.910004	139.839279
3864.596345	43.483341	281.475159	144.281128
3864.599700	43.366451	284.572784	151.119232
3864.603006	44.360023	287.787262	153.749268
3864.606341	45.236702	292.112213	158.950912
3864.609678	45.528931	295.560486	163.918762
3864.613004	46.580948	298.833435	169.938629
3864.616340	46.288719	302.164825	175.198715
3864.619673	47.282288	306.723572	182.329041
3864.623006	48.275864	309.704254	187.939804
3864.626341	48.626534	313.152527	194.602570
3864.629673	49.503212	317.126831	200.739334
3864.633004	49.561661	320.808899	206.992996
3864.636343	49.912331	323.614288	214.006439
3864.639673	50.613678	327.705444	221.078308
3864.643044	50.964348	330.744598	228.676208
3864.646337	51.607246	335.829346	235.631210
3864.649676	52.600815	339.394501	242.995316
3864.653007	52.425484	341.849213	252.405029
3864.656335	53.419052	345.881958	261.464050
3864.659665	53.477497	349.739349	268.769714
3864.663007	54.412624	352.661591	278.647003
3864.666341	55.055523	354.940979	286.303345
3864.669671	55.639977	359.149048	295.537689
3864.673001	55.698421	361.311523	305.356506
3864.676333	56.984219	364.584442	316.227356
3864.679669	57.218002	366.688507	325.169495
3864.683015	57.860901	368.967865	336.274109
3864.686344	58.094681	372.240814	346.969604
3864.689671	58.094681	372.708344	356.203979
3864.693007	59.088249	376.215057	367.367035
3864.696330	59.614258	377.442444	380.225037
3864.699671	59.906487	378.436035	389.751617
3864.703001	60.257156	378.903564	403.135590
3864.706333	61.133839	380.247803	414.473969
3864.709668	60.958504	380.832275	428.150177
3864.712997	61.484512	382.468750	437.852142
3864.716330	61.893631	380.306274	452.112793
3864.719662	62.244301	380.423157	464.970795
3864.723002	62.361191	380.423157	477.887207
3864.726335	62.828754	379.137360	494.602600
3864.729666	62.419640	377.676239	507.460541
3864.732991	62.887199	375.513733	521.019897
3864.736328	63.004093	373.234344	534.637634
3864.739663	62.478085	368.734070	550.242493
3864.742992	62.770309	366.279388	564.620117
3864.746350	61.952076	364.058472	577.478027
3864.749663	61.718292	357.804779	591.914062
3864.753022	60.607830	353.479858	605.648743
3864.756334	60.490936	348.979553	620.376953
3864.759669	59.672707	341.556976	637.501404
3864.762992	59.205139	335.653992	651.762085
3864.766329	58.153126	327.939209	666.431885
3864.769663	57.159554	319.815308	681.218567
3864.772989	56.341320	310.639404	696.706543
3864.776321	55.464638	301.931030	708.044983
3864.779660	54.237289	293.164246	724.117432
3864.782991	52.308590	282.644073	736.683228
3864.786327	51.315018	271.831696	751.002319
3864.789668	49.678551	260.551727	765.262939
3864.792990	48.042080	249.213318	776.776733
3864.796328	46.580948	236.822937	792.323181
3864.799653	45.119812	223.555817	804.012207
3864.802985	43.541786	210.580963	815.642883
3864.806324	41.729980	196.787842	825.636963
3864.809656	39.684395	183.111633	836.916931
3864.812990	37.931034	168.149628	850.476318
3864.816324	35.827000	153.479843	859.009277
3864.819651	33.196960	137.582703	868.419006
3864.822993	32.261833	122.153122	878.354736
3864.826361	29.573349	105.729980	884.491455
3864.829649	26.417299	89.482178	890.511353
3864.833001	24.488602	73.117477	900.914612
3864.836323	22.501461	56.226765	904.947388
3864.839652	19.520748	39.569843	909.330750
3864.842987	17.124489	21.977787	911.317932
3864.846320	15.020455	5.262421	916.168884
3864.849657	13.325541	-10.926941	917.571594
3864.852988	10.987726	-27.934540	921.545837
3864.856322	8.299238	-45.760372	919.500305
3864.859646	6.136761	-62.592636	920.318542
3864.862978	3.623611	-78.898888	920.552307
3864.866315	0.642899	-96.140274	918.915771
3864.869668	-0.993570	-111.394501	916.578003
3864.872980	-3.623615	-126.882523	911.025635
3864.876317	-6.545879	-143.481003	908.161865
3864.879646	-8.766804	-158.735245	900.973083
3864.882979	-10.987724	-173.755692	894.251831
3864.886316	-13.793106	-187.548798	891.154236
3864.889644	-16.130917	-202.569244	882.562744
3864.892980	-18.293396	-215.485687	873.562195
3864.896321	-20.514317	-228.811218	864.386292
3864.899650	-22.852131	-242.195221	854.567444
3864.902983	-24.722382	-253.767380	841.417236
3864.906315	-27.235535	-265.514893	830.663330
3864.909653	-29.222675	-275.684387	820.260071
3864.913014	-31.618938	-286.263000	808.395630
3864.916310	-33.547630	-295.555817	794.953247
3864.919657	-35.417889	-305.842194	781.744568
3864.922975	-37.346584	-312.621857	766.899475
3864.926310	-38.807720	-322.089996	755.210388
3864.929643	-40.268848	-330.564575	740.248352
3864.932970	-41.788425	-337.227356	726.338379
3864.936310	-43.191113	-342.954987	713.597290
3864.939641	-44.593807	-349.500854	695.829895
3864.942981	-45.645824	-354.293396	683.439453
3864.946307	-46.113384	-359.728790	667.483887
3864.949640	-46.873173	-364.638214	651.879028
3864.952978	-48.334309	-368.495605	637.735229
3864.956326	-49.269436	-372.586792	622.773193
3864.959639	-49.853886	-374.573944	608.044983
3864.962996	-50.321453	-376.561066	593.024536
3864.966307	-50.204563	-379.483337	577.244263
3864.969635	-51.081234	-381.236694	560.353516
3864.972979	-51.724140	-382.230286	546.268250
3864.976303	-51.724140	-382.756256	529.845093
3864.979634	-51.899471	-383.516052	517.045593
3864.982968	-52.133251	-383.223846	502.843384
3864.986309	-52.600819	-383.691406	489.225586
3864.989634	-52.133251	-383.223846	475.900055
3864.992970	-52.483929	-382.230286	462.048492
3864.996305	-52.659267	-382.580933	447.963196
3864.999670	-52.250141	-380.301575	436.040314
3865.002966	-52.542377	-379.834015	422.714752
3865.006301	-52.250141	-377.028656	411.785522
3865.009634	-51.548801	-375.509064	398.050842
3865.012973	-51.431911	-373.521912	385.192871
3865.016303	-51.782581	-372.002319	375.257172
3865.019628	-51.081234	-367.794250	363.392731
3865.022963	-51.198132	-365.865570	353.223267
3865.026298	-50.905903	-363.293976	341.592621
3865.029692	-50.672123	-362.709503	331.773804
3865.032970	-50.263004	-358.793671	320.084747
3865.036300	-49.853886	-354.877838	310.032135
3865.039634	-49.970776	-352.247803	301.323792
3865.043001	-49.503216	-348.156647	291.738770
3865.046299	-48.860317	-345.585022	282.036804
3865.049635	-48.568089	-342.195221	274.088257
3865.052964	-48.684978	-339.506714	264.269440
3865.056300	-47.632969	-335.415558	256.087067
3865.059635	-47.223843	-331.967285	247.554077
3865.062968	-47.106953	-327.934540	240.482178
3865.066297	-46.405613	-325.304504	233.410294
3865.069625	-46.230274	-321.680908	225.812393
3865.072962	-45.996494	-319.459961	219.091187
3865.076296	-45.353596	-314.667450	211.785522
3865.079628	-44.535358	-312.621857	205.940979
3865.082959	-44.360027	-308.881348	200.739334
3865.086296	-43.834019	-304.381042	192.323212
3865.089629	-43.015781	-300.406769	188.173584
3865.092966	-43.132671	-297.952057	181.569260
3865.096314	-42.840443	-294.562225	176.250732
3865.099653	-42.255985	-291.113953	170.581528
3865.102958	-41.729984	-288.308594	165.730576
3865.106297	-41.437756	-285.269409	159.652252
3865.109623	-40.444187	-282.054932	156.320862
3865.112956	-40.268848	-279.074249	151.119232
3865.116288	-39.567501	-276.385742	147.203400
3865.119628	-39.392170	-271.651672	141.884857
3865.122962	-38.690830	-269.898315	138.670364
3865.126293	-38.164814	-266.683807	133.527176
3865.129636	-37.755703	-263.703094	130.488022
3865.132960	-37.521923	-261.073059	126.922852
3865.136292	-36.995907	-257.917023	123.474586
3865.139618	-36.762127	-255.696075	120.961426
3865.142956	-36.294567	-252.423126	116.811813
3865.146284	-36.236126	-250.377548	113.012863
3865.149623	-35.417889	-247.396835	109.973701
3865.152955	-35.125660	-244.649902	107.343658
3865.156289	-34.541206	-242.662781	104.596733
3865.159641	-34.774986	-238.746918	101.966690
3865.162955	-33.956753	-237.753357	99.336647
3865.166288	-34.132084	-235.181747	96.998833
3865.169658	-34.132084	-232.551727	94.193459
3865.172961	-33.489189	-230.447693	92.381645
3865.176286	-33.138515	-228.986557	90.569847
3865.179617	-32.787846	-226.824066	88.758034
3865.182952	-32.729397	-223.960251	85.835770
3865.186285	-32.437172	-222.323792	84.316193
3865.189616	-32.203392	-219.810623	81.686150
3865.192951	-31.618938	-217.998825	79.406784
3865.196283	-31.326710	-216.128571	78.062538
3865.199619	-31.502048	-214.316772	76.016953
3865.202951	-31.151375	-212.037399	74.438927
3865.206281	-30.450031	-209.991821	73.153130
3865.209616	-30.216251	-207.537109	72.042664
3865.212944	-29.924019	-206.251312	69.061958
3865.216284	-29.748688	-204.556396	68.243721
3865.219616	-29.924019	-203.913498	66.548805
3865.222952	-29.339565	-201.926346	66.081238
3865.226280	-29.398014	-200.465210	64.444771
