time (s)	magX	magY	magZ
7364.352967	278.494446	127.953835	126.533028
7364.356306	272.182343	126.492699	120.863823
7364.359633	267.331360	124.213333	114.902397
7364.362971	264.000000	122.226181	109.408524
7364.366305	259.441284	120.355934	104.849800
7364.369634	255.233185	118.544128	100.057274
7364.372965	250.616028	117.784340	95.264755
7364.376304	245.765060	115.504974	90.413788
7364.379634	241.673874	112.991814	86.965515
7364.382975	237.699600	112.348923	83.634132
7364.386298	233.725311	110.537117	78.724724
7364.389633	229.634140	109.543541	74.808884
7364.392970	226.185867	107.322624	71.126823
7364.396301	222.328461	105.744591	68.438339
7364.399652	218.120407	104.283470	66.334312
7364.402957	214.087677	102.763885	61.600231
7364.406303	209.996490	101.711868	59.320866
7364.409625	206.606674	99.783173	56.398594
7364.412994	204.151962	98.322037	53.067215
7364.416303	199.651672	97.562248	50.787842
7364.419626	197.313858	95.925774	48.508472
7364.422959	193.514908	94.932205	46.170662
7364.426307	190.767975	93.821747	43.540619
7364.429630	187.027481	92.185280	41.845703
7364.432963	184.806549	91.133263	40.150787
7364.436296	182.585632	89.905907	37.871422
7364.439628	179.020462	89.438339	36.176506
7364.442959	176.624207	87.684982	34.540035
7364.446300	174.987732	86.691414	33.371128
7364.449643	171.831680	85.990074	31.676212
7364.452964	170.370544	85.347168	30.390415
7364.456297	167.857391	83.944481	28.227938
7364.459626	164.818237	83.535362	26.825247
7364.462977	162.714203	82.249565	25.597895
7364.466296	160.551727	81.314438	24.545879
7364.469623	159.441269	80.613091	23.376972
7364.472960	157.220337	79.677971	22.149620
7364.476287	154.882523	79.035072	21.389830
7364.479625	152.486267	78.275284	19.987143
7364.482958	150.966690	76.931038	18.993570
7364.486290	149.154892	75.879021	18.233780
7364.489629	148.628876	75.820580	17.473991
7364.492991	145.881943	74.651672	17.123320
7364.496285	144.011703	74.242546	15.720631
7364.499623	142.784348	73.307426	15.428404
7364.502957	141.323196	73.015198	14.434834
7364.506287	139.452957	71.554062	13.733490
7364.509620	138.050262	70.677383	12.389246
7364.512957	136.355347	70.209824	11.746347
7364.516287	135.303329	69.742264	11.278784
7364.519619	134.485092	69.450035	10.168323
7364.522953	132.030396	68.690247	9.583869
7364.526290	130.919922	67.930450	9.057861
7364.529621	130.160141	67.813560	8.707189
7364.532958	128.406784	67.229111	8.414962
7364.536312	127.822327	66.060204	7.479836
7364.539617	126.419632	66.410873	7.304500
7364.542955	125.426071	65.358856	6.018703
7364.546288	124.374054	64.891296	5.901812
7364.549615	123.322044	63.956165	5.726476
7364.552949	122.679138	63.254822	5.375804
7364.556280	121.802460	63.430157	5.609585
7364.559615	120.808884	63.371712	4.732905
7364.562949	119.932205	62.787258	4.090006
7364.566284	119.639977	62.962593	3.973115
7364.569611	118.529518	62.261250	3.680888
7364.572947	117.711281	62.202808	2.687317
7364.576282	117.477493	62.261250	2.862653
7364.579635	116.717712	62.261250	2.979544
7364.582941	116.074806	61.209232	2.102864
7364.586281	115.315025	61.384571	2.804208
7364.589618	114.964348	61.092342	2.687317
7364.592941	114.672119	61.735245	2.628872
7364.596286	113.620110	60.800117	2.687317
7364.599617	114.146118	60.683228	2.687317
7364.602941	113.444778	60.683228	1.401520
7364.606279	113.094101	60.917011	1.109293
7364.609619	113.035652	60.800117	3.096435
7364.612943	112.568085	60.683228	1.927528
7364.616275	112.217415	60.507889	2.804208
7364.619606	111.516075	60.566338	1.518410
7364.622967	111.749855	60.624779	0.933957
7364.626271	111.866745	60.975452	0.466394
7364.629608	111.223846	60.449448	0.583285
7364.632949	111.574524	60.332558	0.700175
7364.636281	110.931618	60.274109	0.700175
7364.639603	110.580948	60.274109	0.174167
7364.642939	111.399185	60.332558	0.583285
7364.646270	110.814728	60.332558	0.524839
7364.649605	109.821159	60.040325	-0.001169
7364.652944	110.347168	60.390999	1.459965
7364.656271	110.931618	60.507889	0.115722
7364.659605	110.522507	60.624779	-0.001169
7364.662994	109.938049	59.981884	0.875511
7364.666302	109.938049	60.040325	0.641730
7364.669608	109.996490	59.981884	0.466394
7364.672941	110.230278	60.800117	0.641730
7364.676277	110.171829	60.683228	0.758621
7364.679604	110.347168	60.683228	0.992402
7364.682938	110.230278	60.800117	1.459965
7364.686269	110.405617	60.917011	1.167738
7364.689601	111.282288	61.501461	2.336645
7364.692931	111.808304	61.384571	2.044418
7364.696271	111.691414	62.319698	3.505552
7364.699599	112.042084	61.852135	1.752192
7364.702934	112.158974	62.202808	2.453536
7364.706267	112.743431	63.313267	1.985973
7364.709619	112.918762	63.547047	2.453536
7364.712934	113.970779	63.839275	2.862653
7364.716266	114.789017	64.306839	4.265342
7364.719604	114.496788	65.066628	2.395091
7364.722931	115.315025	66.060204	3.505552
7364.726264	116.191704	65.943314	3.447107
7364.729601	116.542374	66.118645	4.148451
7364.732935	117.886620	66.586205	5.200468
7364.736263	117.594391	66.995323	5.200468
7364.739598	118.763298	67.229111	5.609585
7364.742930	119.523094	68.105789	5.492694
7364.746265	120.516655	68.456467	5.784921
7364.749600	121.744011	68.807137	7.129164
7364.752969	121.919342	69.625374	7.187610
7364.756262	122.445351	69.976044	8.648743
7364.759599	123.848038	70.560493	8.122736
7364.762930	124.841614	71.320282	8.122736
7364.766260	125.718292	71.729401	8.064290
7364.769594	127.004097	72.664528	8.181181
7364.772931	128.173004	73.482765	9.817650
7364.776257	129.049683	74.125656	9.700760
7364.779591	130.043243	74.710114	10.635885
7364.782929	131.036819	75.703682	10.869667
7364.786259	132.497955	75.820580	11.863237
7364.789591	133.783752	76.989487	12.155464
7364.792924	134.835770	78.333733	12.389246
7364.796281	136.706024	78.684402	12.856808
7364.799591	138.108704	79.853310	14.317944
7364.802925	139.102280	80.496201	14.785505
7364.806254	140.154297	81.781998	15.603741
7364.809588	141.615433	82.249565	15.954412
7364.812922	143.368790	83.535362	17.181765
7364.816259	145.180603	84.762718	18.409117
7364.819586	146.232620	85.464058	18.526007
7364.822918	148.804214	86.983635	19.578024
7364.826284	149.213318	88.503220	20.104033
7364.829588	151.726486	89.029228	20.571594
7364.832923	153.012268	90.665695	22.266510
7364.836252	156.051422	92.126831	23.610754
7364.839589	157.804794	93.237289	24.253653
7364.842925	159.382812	94.406197	26.883694
7364.846255	161.019287	95.867332	28.403273
7364.849589	164.058441	97.036240	29.805962
7364.852919	165.578033	98.380478	30.448860
7364.856248	168.441849	100.542961	31.325541
7364.859581	170.896545	101.828758	34.014027
7364.862936	173.409714	103.406776	35.475163
7364.866253	175.572174	105.277031	39.683224
7364.869585	178.319122	107.030396	41.319695
7364.872915	179.838684	108.842201	42.722382
7364.876252	183.812973	110.361786	45.644653
7364.879584	185.683228	112.348923	46.988895
7364.882926	188.371719	114.219170	48.976036
7364.886248	192.229111	116.381653	51.255405
7364.889586	194.976044	118.076569	55.580360
7364.892920	198.015198	120.414383	57.216827
7364.896250	200.995911	122.576859	60.489773
7364.899585	204.444183	124.330215	62.418465
7364.902917	206.781998	126.960258	66.334312
7364.906246	210.756287	129.239624	69.548805
7364.909577	214.379898	131.694336	71.594391
7364.912911	216.951492	133.739914	76.445351
7364.916243	221.685577	136.253067	80.127411
7364.919581	224.607849	138.649323	82.932785
7364.922914	228.582123	141.513138	86.790176
7364.926251	231.153717	144.201630	91.173584
7364.929575	235.654022	146.481003	94.271187
7364.932915	239.511383	149.169495	99.063705
7364.936248	243.602585	151.682632	103.856224
7364.939582	246.232620	154.897125	108.824081
7364.942914	250.440689	157.936279	113.324371
7364.946246	253.772064	160.274109	119.227356
7364.949576	257.454132	163.079483	124.838104
7364.952909	261.136169	166.819992	130.273529
7364.956242	265.110443	169.450027	136.585617
7364.959578	270.604309	172.372284	145.001755
7364.962914	273.760376	176.171234	150.787842
7364.966238	278.085327	179.970184	158.853302
7364.969603	281.533630	183.243134	165.340744
7364.972902	286.209259	186.983627	174.165985
7364.976241	290.125092	190.782578	180.945648
7364.979570	295.852722	194.581528	189.770889
7364.982905	297.722992	197.679138	198.537704
7364.986234	302.866180	200.601395	208.940964
7364.989573	307.424896	205.043259	217.649323
7364.992909	311.165405	208.082397	227.117477
7364.996252	314.905914	212.699585	237.754517
7364.999606	319.347748	215.738739	247.047333
7365.002903	322.036224	219.303909	258.385742
7365.006236	326.945648	224.154892	270.542358
7365.009574	330.510803	227.077133	282.056091
7365.012911	332.556396	230.291641	294.271179
7365.016240	336.530670	234.324371	307.830505
7365.019566	339.219147	237.889542	321.915833
7365.022899	343.602570	241.688477	334.072479
7365.026233	345.940399	244.727646	347.807129
7365.029568	347.752197	247.766785	363.178253
7365.032905	349.154877	250.864395	376.971375
7365.036230	351.434265	254.312668	392.693176
7365.039566	355.057861	258.228546	407.713623
7365.042899	355.759216	261.501465	423.493866
7365.046233	355.408539	262.670349	440.033905
7365.049569	356.577454	266.352417	458.035034
7365.052902	354.181183	268.047333	473.347778
7365.056231	354.999420	271.554047	493.160736
7365.059560	352.661621	272.898315	508.765656
7365.062901	351.726471	274.826996	527.818848
7365.066251	349.739319	276.872559	546.813538
7365.069562	345.998840	277.866150	563.353577
7365.072901	342.725891	279.327271	584.335449
7365.077522	333.608398	280.905304	623.493896
7365.080884	328.056122	280.905304	639.274109
7365.084253	322.328461	280.846863	658.093506
7365.087585	314.146118	280.496216	676.620667
7365.090955	307.191132	279.970184	698.829956
7365.094234	298.073639	278.742859	716.012878
7365.097574	289.073059	276.521912	734.423157
7365.100883	277.033325	273.774994	752.599609
7365.104249	265.811798	271.963165	770.308594
7365.107626	253.713623	269.566925	788.017517
7365.110929	240.972534	266.352417	807.772034
7365.114209	228.348343	261.559906	828.929260
7365.117563	212.684982	257.351837	845.761536
7365.120869	196.846283	251.974854	857.333740
7365.124264	180.481598	246.364105	873.055481
7365.127589	163.649323	241.162476	885.504395
7365.130485	145.940384	233.915237	900.057251
7365.134206	126.945648	225.382217	911.570984
7365.137525	108.301582	218.427246	922.675659
7365.140884	88.313271	209.543549	937.754517
7365.143777	68.734077	201.361191	943.657532
7365.147564	48.804207	191.250137	953.301025
7365.150486	28.406780	181.781998	959.554626
7365.153806	6.431327	171.495621	964.756287
7365.157491	-14.199883	161.033890	966.568054
7365.160399	-34.714203	150.689056	971.360657
7365.163764	-56.222092	139.175323	972.412659
7365.167102	-76.268845	128.830505	977.205139
7365.170472	-96.841614	117.316772	972.061951
7365.173851	-117.180588	106.679718	966.860352
7365.177180	-136.876678	95.049095	965.808228
7365.180408	-156.514313	84.178261	959.730042
7365.183734	-176.385742	73.015198	952.365845
7365.187099	-196.081833	61.559906	945.410889
7365.190419	-213.615417	50.747517	935.124451
7365.193765	-230.389236	39.759789	928.520142
7365.197151	-246.520172	29.473408	913.908813
7365.200480	-262.008179	18.836353	902.804260
7365.203786	-277.554626	9.134424	889.069519
7365.207068	-294.796021	-1.794857	874.575073
7365.210413	-307.712433	-10.327879	857.625916
7365.213747	-321.213318	-20.029808	844.709534
7365.217090	-333.253082	-28.562832	827.994141
7365.220502	-345.468140	-37.154297	813.616638
7365.223807	-355.871429	-45.219753	792.167175
7365.227143	-365.631805	-52.817654	774.633545
7365.230410	-374.924591	-61.058445	757.509033
7365.233731	-382.697815	-67.312096	737.871399
7365.237065	-390.821747	-74.442429	718.642883
7365.240424	-395.964905	-80.111626	698.829956
7365.243762	-401.458801	-86.014603	678.023376
7365.247166	-405.491547	-91.333138	660.489746
7365.250510	-410.810059	-96.125656	642.079529
7365.253747	-412.972534	-100.918167	621.389832
7365.257064	-415.602600	-105.886024	601.109253
7365.260436	-417.531250	-109.801872	581.763916
7365.263745	-419.810638	-113.834587	564.814697
7365.267091	-420.102844	-116.523079	546.988892
7365.270474	-418.583313	-119.445351	525.305664
7365.273838	-417.414368	-121.666267	508.356537
7365.277133	-416.362335	-124.588539	490.764465
7365.280393	-415.602600	-126.517250	469.724121
7365.283729	-414.199890	-128.504379	453.593201
7365.287049	-412.563416	-129.848633	435.942688
7365.290415	-409.641113	-131.134430	423.493866
7365.293757	-405.374634	-131.660446	404.557556
7365.297133	-402.744568	-133.238464	390.764465
7365.300461	-396.315613	-133.121582	375.451782
7365.303727	-394.620697	-133.355362	360.782013
7365.307047	-387.782593	-132.946228	347.982452
7365.310385	-383.632935	-133.063126	335.767395
7365.313768	-380.067810	-132.946228	320.337799
7365.317097	-374.924591	-132.712448	308.181183
7365.320461	-369.489197	-132.361786	295.907654
7365.323329	-366.508453	-130.959091	283.400360
7365.326659	-359.670349	-130.783752	274.516663
7365.330386	-353.708923	-129.264175	261.950897
7365.333337	-349.851532	-128.153717	251.372299
7365.337051	-343.422546	-127.744591	242.021042
7365.339978	-338.571594	-126.517250	233.312683
7365.343293	-333.369965	-124.880775	222.734070
7365.346630	-327.642303	-123.127411	213.850388
7365.349985	-321.622437	-122.133835	205.200470
7365.353317	-316.771484	-120.672699	197.251892
7365.356660	-312.329620	-119.036232	187.491531
7365.360012	-306.192871	-117.808884	180.536530
7365.363292	-301.225037	-116.230850	172.821747
7365.366630	-296.783173	-114.594383	166.509644
7365.369960	-290.763275	-113.308594	160.139099
7365.373295	-285.561646	-111.262993	152.190536
7365.376620	-279.950897	-108.574516	145.235535
7365.379961	-274.807709	-107.990059	139.917007
7365.383302	-269.781403	-106.645821	134.072479
7365.386645	-264.638214	-104.600235	128.111053
7365.390005	-260.722382	-102.203972	122.500298
7365.393317	-255.812988	-101.502625	117.357101
7365.396624	-250.669800	-99.807709	112.389252
7365.399962	-246.169495	-99.047920	107.596725
7365.403299	-243.071899	-97.879013	102.979546
7365.406621	-237.753342	-96.242538	99.063705
7365.409954	-233.837509	-94.781410	95.030975
7365.413288	-229.512558	-94.080070	91.290474
7365.416621	-226.005844	-91.508476	87.608414
7365.419946	-221.388657	-90.164230	83.634132
7365.423324	-217.297485	-89.813553	79.192284
7365.426644	-213.089417	-88.001755	77.438927
7365.429992	-210.985382	-87.241959	72.997078
7365.433292	-206.835770	-86.014603	70.367035
7365.436619	-203.971939	-84.553474	67.678551
7365.439950	-199.763870	-84.319695	65.340736
7365.443285	-196.666275	-81.923431	62.769138
7365.446647	-193.218002	-81.748100	59.554649
7365.449952	-190.003494	-81.105194	56.866158
7365.453290	-188.250137	-79.234947	54.177673
7365.456644	-185.620102	-78.708939	52.774982
7365.459976	-181.938049	-77.130913	50.320278
7365.463351	-179.191116	-76.312683	48.859146
7365.466646	-177.145523	-76.254234	46.579777
7365.469956	-173.872589	-73.974869	45.001755
7365.473285	-172.353012	-74.500870	44.300411
7365.476645	-168.963181	-72.864403	41.962593
7365.479948	-167.034470	-71.929276	40.852131
7365.483271	-164.170670	-71.461716	38.455872
7365.486616	-162.183517	-70.059029	36.877850
7365.489955	-160.663940	-69.065460	35.592052
7365.493298	-158.852127	-68.948570	34.656929
7365.496642	-156.163651	-67.838104	33.020454
7365.499969	-154.351837	-67.545876	32.085331
7365.503281	-152.423141	-66.902977	30.448860
7365.506663	-150.143768	-65.266510	30.156633
7365.509949	-148.215073	-64.272934	27.935711
7365.513274	-145.994156	-63.863827	26.533020
7365.516608	-144.766800	-63.571598	25.422560
7365.519529	-142.955002	-62.344242	25.013443
7365.522853	-141.493866	-61.233784	23.669199
7365.526187	-138.922272	-60.766216	22.617182
7365.529521	-137.052017	-60.532436	22.149620
7365.532846	-135.298645	-60.006435	20.805376
7365.536185	-134.188187	-59.480423	20.162477
7365.539518	-133.311508	-59.305080	19.636471
7365.542848	-132.084152	-59.071301	18.058445
7365.546185	-129.746338	-58.136177	18.409117
7365.549518	-128.577438	-56.850380	17.240210
7365.552863	-127.116302	-57.025719	16.655756
7365.556186	-125.538284	-56.207481	15.779078
7365.559518	-124.778488	-55.564579	15.603741
7365.562850	-124.194046	-56.149033	13.675043
7365.566182	-122.849792	-55.506138	14.142607
7365.569518	-122.265350	-56.149033	14.902395
7365.572848	-121.154877	-54.687904	13.558153
7365.576181	-119.635300	-53.928112	12.915255
7365.579512	-118.992401	-54.220341	12.681473
7365.582848	-118.875504	-54.220341	12.447691
7365.586218	-117.063705	-53.752777	11.337231
7365.589518	-116.596146	-53.226768	11.395676
7365.592846	-115.836349	-53.109879	11.454121
7365.596175	-115.368790	-52.876095	10.811222
7365.599517	-114.784332	-52.759205	9.876096
7365.602840	-113.556984	-52.817654	10.402103
7365.606181	-113.147858	-51.648746	9.583869
7365.609511	-113.264755	-51.882526	9.759205
7365.612842	-112.329628	-51.765636	9.350088
7365.616181	-111.978951	-51.473408	9.466978
7365.619521	-111.102272	-51.181183	9.350088
7365.622846	-110.634712	-50.947403	9.992987
7365.626174	-109.524254	-50.596729	9.057861
7365.629524	-109.348923	-51.181183	9.759205
7365.632837	-109.933365	-50.655174	7.830509
7365.636180	-109.407356	-50.772064	8.824080
7365.639511	-108.121567	-51.064293	8.005844
7365.642842	-108.063118	-50.655174	8.298071
7365.646171	-107.712448	-50.304501	8.531853
7365.649504	-107.829338	-50.479839	8.122736
7365.652836	-108.121567	-50.772064	8.473408
7365.656173	-108.472229	-51.005844	8.531853
7365.659507	-107.420219	-50.304501	8.064290
7365.662836	-107.127991	-50.187611	8.005844
7365.666172	-107.186440	-50.187611	8.298071
7365.669506	-106.718880	-50.362942	7.070719
7365.672837	-106.543549	-50.655174	8.473408
7365.676170	-106.309761	-50.772064	7.129164
7365.679500	-106.309761	-50.713619	7.538281
7365.682836	-106.426651	-50.655174	7.538281
7365.686211	-106.192863	-50.421391	7.713618
7365.689499	-105.783752	-51.064293	6.953828
7365.692836	-106.251312	-51.298073	8.181181
7365.696170	-106.894211	-51.239628	7.655172
7365.699500	-107.887787	-51.824078	8.181181
7365.702868	-107.887787	-51.824078	8.239626
7365.706163	-107.127991	-51.940971	7.830509
7365.709495	-107.537109	-52.174751	8.298071
7365.712832	-107.478668	-53.402107	8.239626
7365.716177	-108.530678	-53.226768	9.116306
7365.719501	-108.647575	-53.460548	8.531853
7365.722832	-109.056694	-53.518997	8.765635
7365.726165	-109.173576	-53.635887	9.408533
7365.729495	-109.699585	-53.577438	9.934542
7365.732834	-110.284042	-54.512566	10.109877
7365.736166	-111.277611	-54.629456	9.759205
7365.739504	-111.394501	-54.804794	10.402103
7365.742831	-111.978951	-54.804794	10.343658
7365.746173	-112.504959	-56.149033	11.746347
7365.749499	-113.206306	-56.441265	11.161894
7365.752827	-114.199883	-56.265926	11.687902
7365.756162	-114.959671	-56.850380	11.863237
7365.759505	-116.070129	-57.668613	12.272356
7365.762831	-117.239044	-58.545296	13.032145
7365.766159	-118.057281	-59.012859	13.499708
7365.769488	-118.583282	-58.895969	13.733490
7365.772831	-119.985962	-59.480423	13.499708
7365.776159	-120.219742	-59.305080	14.376389
7365.779496	-121.271774	-60.064877	15.369959
7365.782831	-121.797775	-60.883106	15.311514
7365.786155	-122.382233	-61.409122	16.363529
7365.789503	-124.369370	-61.584454	16.947983
7365.792825	-124.720047	-63.220921	17.707773
7365.796161	-127.642319	-63.805378	18.467562
7365.799490	-126.999420	-63.396259	18.701344
7365.802828	-128.986557	-64.682053	18.759790
7365.806153	-130.564575	-65.208061	19.636471
7365.809493	-131.265915	-65.734070	19.694916
7365.812833	-132.610168	-66.727638	20.746931
7365.816159	-133.369965	-67.721214	21.331385
7365.819512	-135.532425	-68.422554	21.682056
