time (s)	magX	magY	magZ
6971.158956	-295.555817	-171.578613	176.386917
6971.162351	-292.107544	-169.942139	170.367035
6971.165627	-289.243713	-167.896561	166.568100
6971.168976	-285.912323	-166.727646	162.944473
6971.172293	-283.983643	-164.623627	159.145523
6971.175627	-281.762695	-162.928696	156.398605
6971.178962	-278.665131	-162.168915	152.307419
6971.182295	-276.619507	-160.766220	150.028061
6971.185623	-273.697266	-159.071304	146.755112
6971.188959	-270.307434	-158.019287	143.131500
6971.192292	-267.735809	-155.915268	139.917007
6971.195621	-266.976013	-154.980133	138.105194
6971.198982	-263.644653	-154.454132	133.195786
6971.202292	-261.540619	-153.168320	131.851547
6971.205623	-259.962585	-151.648743	129.104630
6971.208959	-256.864990	-150.479843	126.357681
6971.212292	-255.871429	-149.310944	122.675629
6971.215624	-252.656921	-148.258911	119.987137
6971.218956	-251.780243	-146.739349	118.350670
6971.222292	-250.143768	-145.395096	115.895966
6971.225619	-247.689056	-144.576859	113.908821
6971.228949	-245.526581	-143.583282	111.629456
6971.232333	-243.480988	-142.297501	108.356514
6971.235619	-241.260086	-142.297501	108.005836
6971.238952	-240.266510	-140.368805	105.025131
6971.242316	-238.513138	-140.251907	104.090004
6971.245619	-237.285782	-138.673874	101.927521
6971.248952	-234.246643	-138.440094	100.875511
6971.252282	-232.551727	-137.388077	98.303917
6971.255638	-231.616592	-135.342499	97.251900
6971.258946	-228.343658	-135.108719	95.790764
6971.262287	-228.460556	-134.641144	93.043831
6971.265614	-226.824066	-133.296906	92.810051
6971.268951	-226.181183	-132.829346	91.232025
6971.272278	-224.544724	-132.011108	90.355347
6971.275620	-224.603149	-132.069550	87.842194
6971.278948	-221.739319	-131.017532	86.088837
6971.282283	-221.680878	-130.433090	85.329048
6971.285626	-219.752197	-130.082413	83.692574
6971.288944	-219.401505	-129.030396	83.108124
6971.292275	-218.817078	-128.796616	82.757446
6971.295616	-216.596130	-127.919930	81.296318
6971.298942	-215.602570	-127.627708	80.770309
6971.302285	-215.719467	-128.562836	79.192284
6971.305616	-213.498520	-127.218590	78.841614
6971.308945	-213.498520	-126.458794	78.374054
6971.312275	-212.680298	-126.108116	77.964935
6971.315612	-212.797195	-125.815895	78.198715
6971.318949	-210.926941	-125.874336	76.562241
6971.322280	-210.342484	-125.406776	76.036240
6971.325610	-209.758026	-124.763878	75.276443
6971.328955	-209.348923	-124.763878	73.756866
6971.332274	-208.706024	-123.828751	74.107536
6971.335606	-208.822891	-124.471642	74.224426
6971.338937	-207.887772	-123.770302	72.938629
6971.342273	-206.835770	-123.244301	73.581528
6971.345607	-207.186447	-124.179436	72.646400
6971.348942	-206.485077	-123.361191	72.178841
6971.352270	-206.368210	-123.419640	71.886620
6971.355608	-206.368210	-123.653419	71.886620
6971.358943	-205.783752	-123.127411	71.302162
6971.362279	-206.134415	-122.952072	71.477493
6971.365634	-205.023956	-123.010513	72.763290
6971.368937	-206.017517	-122.192284	72.003510
6971.372277	-204.439499	-122.133835	71.302162
6971.375604	-205.433090	-122.835175	71.126823
6971.378936	-204.322601	-122.952072	70.659264
6971.382268	-204.030396	-123.828751	72.120399
6971.385605	-204.381058	-122.659843	71.302162
6971.388938	-205.842194	-123.653419	72.646400
6971.393552	-204.673294	-123.185860	72.354179
6971.396946	-205.725311	-124.705421	73.230858
6971.400284	-205.433090	-123.536522	72.061951
6971.403633	-205.900650	-124.120979	72.412621
6971.406965	-205.842194	-124.237862	72.938629
6971.409898	-205.842194	-124.413216	72.938629
6971.413574	-206.192871	-124.763878	74.633545
6971.416977	-207.361771	-126.283455	74.224426
6971.419879	-206.894211	-125.289894	74.224426
6971.423198	-208.180008	-125.523674	74.516655
6971.426529	-208.472229	-126.341896	74.925774
6971.430228	-209.758026	-127.569252	75.276443
6971.433580	-210.342484	-127.569252	76.854477
6971.436506	-210.342484	-127.803032	76.971367
6971.440283	-211.160706	-128.153717	77.380478
6971.443303	-211.686737	-129.381058	78.081825
6971.446517	-212.680298	-130.374634	79.133835
6971.449908	-214.024551	-130.140854	79.952072
6971.453124	-214.550552	-130.082413	81.822327
6971.456450	-214.316772	-131.368210	82.289886
6971.459800	-215.485672	-131.134430	82.757446
6971.463137	-217.355927	-133.121582	84.686150
6971.466467	-218.057281	-133.004684	85.621277
6971.469865	-219.576859	-133.822922	87.140854
6971.473209	-222.090012	-135.517822	87.666862
6971.476519	-220.979553	-135.751602	88.309761
6971.479774	-222.791336	-136.219177	90.472237
6971.483135	-224.661591	-138.030991	91.115135
6971.486470	-226.181183	-138.323196	93.628288
6971.489804	-226.765640	-139.433670	94.797195
6971.493137	-227.642303	-139.901230	96.784332
6971.496511	-229.863235	-141.479263	99.355927
6971.499850	-231.207474	-141.946823	99.589714
6971.503141	-231.675034	-142.531281	101.109291
6971.506438	-234.597305	-144.459961	101.869080
6971.509769	-236.116882	-145.161316	104.265335
6971.513121	-237.461136	-146.154877	106.018707
6971.516478	-239.740494	-148.142029	108.064285
6971.519879	-240.909409	-149.135590	110.460548
6971.523172	-242.370544	-149.720047	111.980133
6971.526471	-243.948547	-151.064285	114.493279
6971.529783	-246.753937	-153.518997	117.590889
6971.533105	-249.033325	-154.746353	120.162483
6971.536460	-250.026886	-155.389252	120.630043
6971.539799	-252.423157	-157.084167	124.370544
6971.543174	-254.644073	-158.369965	126.825241
6971.546558	-254.644073	-159.305084	129.455292
6971.549873	-257.916992	-160.590897	132.377563
6971.553112	-258.852142	-162.694916	135.299820
6971.556435	-261.891296	-162.753372	137.403854
6971.559802	-264.229126	-164.506729	141.261246
6971.563117	-265.456451	-166.902985	144.241959
6971.566454	-268.787842	-167.896561	147.047333
6971.569849	-271.242554	-170.935715	151.313843
6971.573177	-272.645233	-171.403275	154.411453
6971.576438	-275.275269	-174.208649	158.970200
6971.579765	-277.963776	-175.143784	161.775574
6971.583109	-281.178253	-176.780243	166.100525
6971.586449	-283.399170	-179.234955	170.308594
6971.589823	-284.684967	-180.111633	173.698425
6971.593200	-288.308594	-182.507904	178.549393
6971.596525	-291.172424	-185.605499	184.452362
6971.599842	-294.854492	-186.423737	188.777328
6971.603133	-297.542969	-188.469315	193.452942
6971.606421	-300.932800	-190.339569	198.537704
6971.609761	-302.978363	-192.209824	203.388672
6971.613124	-305.257751	-193.904739	208.648743
6971.616459	-308.179993	-195.190536	213.616592
6971.619360	-310.108704	-197.645248	218.993576
6971.622701	-313.615417	-199.807724	224.896561
6971.626076	-315.602570	-201.093521	232.319122
6971.629338	-318.758606	-204.191132	237.403854
6971.632703	-322.440674	-206.236710	243.423737
6971.636010	-325.888947	-208.399185	250.554062
6971.639337	-327.525421	-209.568085	257.918182
6971.642666	-332.434814	-212.782593	264.230286
6971.646019	-333.779083	-214.009949	270.542358
6971.649328	-338.045563	-216.698425	278.374054
6971.652688	-340.558716	-218.393341	286.381073
6971.656026	-342.662781	-220.731155	293.628296
6971.659361	-347.279968	-222.309174	300.641724
6971.662682	-349.208649	-224.237885	309.525421
6971.666007	-352.773804	-226.984802	317.298645
6971.669339	-354.936279	-229.264175	326.065460
6971.672668	-356.981873	-230.900635	335.767395
6971.676007	-358.852142	-233.589142	345.060181
6971.679336	-362.008179	-235.167160	355.814148
6971.682668	-365.514893	-237.972534	363.704254
6971.685995	-367.911163	-239.901230	374.165985
6971.689357	-370.073639	-241.888367	384.101685
6971.692683	-372.703674	-242.998825	395.089417
6971.696018	-376.327271	-245.570435	405.375824
6971.699331	-378.548218	-247.440689	416.597321
6971.702655	-379.600250	-249.895401	428.052612
6971.705995	-381.178253	-252.291656	438.689667
6971.709333	-382.931610	-253.051453	452.424286
6971.712668	-384.509644	-255.798370	463.762726
6971.715994	-386.087646	-257.259491	477.029816
6971.719330	-388.893036	-258.428406	490.472229
6971.722685	-390.529480	-259.012848	503.973114
6971.726017	-389.419037	-259.772644	516.480408
6971.729350	-391.932190	-262.402679	533.488037
6971.732715	-390.412628	-261.993561	545.001770
6971.736027	-390.471069	-262.461121	559.203979
6971.739328	-392.282867	-263.220917	572.295715
6971.742662	-392.750458	-264.156036	585.913513
6971.745991	-392.049072	-263.980713	605.668030
6971.749334	-389.419037	-264.623596	619.110474
6971.752660	-387.841034	-262.636475	630.390442
6971.756028	-388.717712	-263.220917	645.820007
6971.759345	-386.847443	-264.214508	662.418457
6971.762686	-384.626526	-261.526001	677.088257
6971.766019	-381.821167	-261.701355	692.284058
6971.768953	-379.717102	-260.532440	706.194031
6971.772658	-377.087067	-259.129761	723.026306
6971.775992	-372.411438	-256.265930	737.228516
6971.779319	-366.566925	-255.389252	753.125671
6971.782655	-364.872009	-253.519012	770.191711
6971.785998	-359.319702	-251.648743	784.218628
6971.789320	-352.540039	-248.726471	800.057251
6971.792229	-348.039764	-246.096436	813.850342
6971.795558	-342.253632	-243.291061	828.695557
6971.798917	-335.707764	-240.310349	845.060242
6971.802228	-327.934540	-236.219177	858.853271
6971.805559	-321.037994	-232.712448	874.341370
6971.808899	-313.030975	-228.621277	889.186462
6971.812229	-303.796600	-224.120987	903.447083
6971.815568	-296.724731	-219.503799	917.415588
6971.818895	-286.204559	-214.419067	935.416748
6971.822227	-276.035065	-209.918777	948.625305
6971.825562	-266.566925	-204.658691	961.541809
6971.828891	-254.644073	-198.171249	971.068359
6971.832225	-243.948547	-192.092926	983.166565
6971.835558	-232.025726	-184.670364	991.991882
6971.838896	-221.563980	-179.819412	1005.258911
6971.842260	-207.712433	-171.286377	1013.324402
6971.845559	-195.146683	-164.214493	1022.266541
6971.848884	-181.645813	-156.967270	1035.708984
6971.852225	-166.976044	-148.200470	1040.033936
6971.855560	-153.299820	-141.128571	1049.677490
6971.858888	-139.565155	-131.309769	1055.171265
6971.862220	-124.720047	-123.068962	1063.762817
6971.865559	-110.751610	-114.009933	1068.321533
6971.868884	-95.380478	-105.009346	1072.471191
6971.872219	-79.834015	-97.177666	1078.491089
6971.875556	-64.404434	-86.482170	1082.815918
6971.878886	-49.559319	-77.715370	1082.932861
6971.882221	-33.837524	-69.007011	1084.043335
6971.885615	-18.291056	-59.188190	1083.049683
6971.888889	-2.978374	-49.603157	1084.569336
6971.892230	13.444770	-40.193455	1086.205811
6971.895555	28.932789	-30.666862	1081.413330
6971.898883	44.771477	-21.432497	1079.543091
6971.902214	59.032143	-12.022795	1075.919312
6971.905556	75.046173	-3.197545	1072.529663
6971.908886	89.891296	7.381063	1067.737061
6971.912221	104.093513	16.206312	1062.827637
6971.915552	119.289314	24.856224	1057.392212
6971.918883	134.017532	33.856808	1049.794312
6971.922218	147.284637	42.156048	1041.962646
6971.925550	162.246643	50.805962	1035.533691
6971.928893	175.689072	58.812977	1028.228027
6971.932212	188.956177	67.404442	1021.565186
6971.935545	203.099945	75.236122	1005.668030
6971.938882	215.256561	82.775574	996.959656
6971.942219	228.114548	90.607246	991.991882
6971.945546	240.212753	97.679138	973.873779
6971.948875	251.784912	105.101700	962.418518
6971.952259	263.473969	111.706024	948.976013
6971.955549	274.753937	118.602577	936.585571
6971.958915	285.098755	124.973122	922.032715
6971.962217	295.385162	131.635880	912.973755
6971.965543	304.035065	137.421982	895.147827
6971.968879	313.269440	144.201630	882.582153
6971.972234	322.270020	149.403275	868.087646
6971.975548	330.510803	154.371124	853.184082
6971.978882	338.400940	159.631195	842.430176
6971.982215	346.758636	164.482178	825.013428
6971.985544	353.888947	169.508469	812.155518
6971.988876	360.727081	173.073639	795.031006
6971.992210	366.980713	177.690826	783.225037
6971.995542	371.247223	181.665115	767.327881
6971.998879	377.208649	185.054932	752.775024
6972.002207	382.877838	189.029221	736.585632
6972.005541	386.676819	192.652832	722.032715
6972.008877	390.651093	194.990646	710.226807
6972.012209	394.566925	197.912918	696.608948
6972.015547	396.086487	199.958496	678.666260
6972.018877	400.645233	203.231445	664.464050
6972.022206	402.632385	205.569260	651.372314
6972.025541	402.281708	206.971939	636.760925
6972.028872	406.548218	209.426651	624.312134
6972.032245	408.067810	210.595551	612.389221
6972.035544	407.541809	212.173569	598.420837
6972.038869	407.892456	212.933365	583.341919
6972.042207	409.704285	214.745178	570.191711
6972.045564	409.938049	215.095840	556.983032
6972.048870	411.106964	215.329636	543.482178
6972.052199	412.158966	217.375214	531.383972
6972.055533	411.457642	217.725876	521.214478
6972.058876	408.067810	216.264755	511.337250
6972.062205	409.762726	217.141418	496.608978
6972.065539	408.301575	217.082993	485.445923
6972.068869	407.074219	217.959671	472.587982
6972.072198	406.139099	217.550552	463.295135
6972.075558	403.509064	217.608978	449.560516
6972.078870	403.859741	217.258316	440.618317
6972.082198	402.398621	216.440094	428.929291
6972.085552	399.242554	215.680298	418.058441
6972.088886	397.722992	214.920502	408.298065
6972.092196	394.859131	214.219177	399.940369
6972.095531	394.391571	213.342484	387.959076
6972.098869	391.995331	212.465790	378.549377
6972.102205	390.358856	210.946228	368.847443
6972.105531	387.611938	210.537109	359.496185
6972.108869	383.871429	209.017517	351.372284
6972.112198	383.345398	208.549957	342.780823
6972.115535	380.773834	207.965500	333.955566
6972.118883	375.864410	206.504379	326.299255
6972.122199	375.221497	205.861481	318.526001
6972.125529	372.533020	204.458801	310.226746
6972.128864	367.039154	202.296310	301.927521
6972.132197	365.519592	201.594971	294.621857
6972.135528	363.415558	201.361191	287.666840
6972.138862	361.194641	199.783173	280.478088
6972.142195	357.921692	198.497360	274.516663
6972.145531	355.233185	196.568665	267.678558
6972.148862	351.434265	196.451782	262.301575
6972.152216	350.089996	195.049088	255.229691
6972.155524	347.459961	193.646408	249.268280
6972.158857	343.135010	192.419052	243.482162
6972.162214	340.855652	190.957916	239.215668
6972.165523	336.881348	189.379898	233.020447
6972.168856	334.601990	188.620102	229.104614
6972.172189	333.257751	187.801865	224.312103
6972.175525	330.627686	185.931610	218.935120
6972.178855	326.127411	184.587372	214.668610
6972.182188	324.958496	183.593796	210.577454
6972.185528	321.159546	181.372879	205.142029
6972.188860	320.341309	181.431320	200.349503
6972.192190	315.782593	179.794861	196.550552
6972.195528	314.730560	178.333725	192.459381
6972.198876	312.509644	176.288132	188.192871
6972.202190	308.301575	175.411453	185.562836
6972.205521	305.846863	174.067215	180.945648
6972.208858	305.028656	173.541199	177.964935
6972.212186	302.106384	172.606079	173.873749
6972.215521	300.236115	171.144943	170.600815
6972.218859	297.313843	169.859146	166.801880
6972.222186	296.261841	169.333130	164.464050
6972.225520	293.398010	167.345993	160.197556
6972.228861	291.761536	166.819992	158.151947
6972.232189	288.722382	165.592636	154.236115
6972.235514	287.202820	165.008179	151.138519
6972.238850	285.566315	164.073044	148.917603
6972.242230	282.760956	162.144363	146.404434
6972.245514	280.481598	161.092346	143.248398
6972.248851	278.377563	159.981873	140.969025
6972.252181	277.267090	159.514313	137.754532
6972.255513	274.753937	158.637634	138.046753
6972.258853	273.760376	157.351837	133.721802
6972.262184	271.656342	156.884277	132.377563
6972.265512	269.961426	156.182938	130.974869
6972.268846	267.682037	155.014023	128.286377
6972.272188	267.331360	154.721802	125.188774
6972.275514	265.168884	153.436005	122.850960
6972.278846	264.350677	153.202225	120.805374
6972.282198	261.954407	152.033310	120.220917
6972.285539	261.428406	151.156631	118.818230
6972.288844	259.908844	150.630630	117.006424
6972.292179	258.798340	150.279953	116.071304
6972.295518	257.395660	150.221497	113.791939
6972.298850	255.876114	149.695496	113.265923
6972.302182	254.005859	149.111038	112.272354
6972.305510	254.298065	148.877258	111.687904
6972.308846	252.486267	147.825241	109.057861
6972.312181	252.135605	147.123901	107.947403
6972.315511	250.148453	147.357681	107.304497
6972.318845	249.271774	146.247223	107.070717
6972.322176	249.037994	146.013443	105.200462
6972.325515	248.278214	145.428986	104.440681
6972.328847	247.167755	145.370544	104.499123
6972.332176	246.291061	144.727646	102.570427
6972.335515	245.472839	144.084732	101.459961
6972.338841	245.180603	144.260086	100.700172
6972.342176	244.362381	143.500290	99.648163
6972.345550	244.128586	143.383392	99.531265
6972.348843	242.959686	143.266510	99.648163
6972.352177	242.433670	142.331390	99.765053
6972.355507	242.024567	141.863815	98.187027
6972.358868	242.258331	142.097595	97.018120
6972.362172	241.147873	141.922272	96.082993
6972.365503	240.914078	141.746918	95.790764
6972.368836	240.797211	141.513138	96.082993
6972.372176	240.154282	140.987137	94.914085
6972.375504	239.160721	140.753357	94.738754
6972.378835	239.394516	140.694916	94.446518
6972.382173	238.868500	140.987137	94.446518
6972.385505	237.758041	140.519562	93.920517
6972.388836	238.284042	140.402679	94.037407
6972.392170	239.102295	140.694916	93.219170
6972.395505	238.459396	140.928696	93.452950
6972.398838	238.108704	140.811798	93.452950
6972.402175	237.348907	140.519562	93.862068
6972.405504	237.874939	140.928696	93.511398
6972.408834	237.524261	140.461136	93.452950
6972.412189	237.816467	141.337814	93.160721
6972.415504	238.108704	141.220932	94.271187
6972.418836	238.634720	141.630035	94.972534
6972.422173	238.985397	141.746918	94.504967
6972.425502	239.102295	141.980713	95.790764
6972.428828	238.868500	142.506714	95.498535
6972.432202	239.569855	142.389832	96.433662
6972.435507	240.212753	143.149612	96.550552
6972.438836	241.030975	143.734070	96.492111
6972.442167	241.089432	143.850952	97.427238
6972.445517	240.855637	144.260086	98.537697
6972.448825	241.440094	144.201630	98.362366
6972.452169	242.024567	145.312088	99.297485
6972.455500	242.842789	145.253647	100.992401
6972.458828	244.187012	145.604324	101.693741
6972.462163	244.654587	146.714783	101.927521
6972.465502	245.998825	146.656326	104.031555
6972.468829	246.115723	147.649902	103.973122
6972.472163	247.226181	148.117462	105.083580
6972.475513	247.635315	148.117462	107.187607
6972.478830	248.278214	148.818817	106.778496
6972.482166	249.797791	149.812393	107.888954
6972.485491	250.382233	150.455276	109.116310
6972.488833	251.551147	151.215073	109.817657
6972.492165	252.778503	151.916412	110.928116
6972.495488	252.836945	152.150192	113.441261
6972.498829	254.005859	152.267090	114.902397
6972.502163	256.226776	153.436005	115.369957
6972.505493	256.869659	154.312683	116.772644
6972.508822	257.746338	154.546463	117.123322
6972.512194	259.558136	156.182938	119.168907
6972.515490	259.850372	156.708939	120.980713
6972.518828	261.311523	157.936279	123.669205
6972.522155	262.305084	158.462296	124.896553
6972.525489	264.642883	159.397415	126.591461
6972.528825	265.344238	160.040329	129.279953
6972.532158	267.331360	161.150787	130.799530
6972.535490	268.734070	162.787262	133.546463
6972.538828	269.961426	163.196365	134.890701
6972.542161	271.422577	164.949738	138.105194
6972.545484	273.409698	165.066620	140.033890
6972.548871	276.156647	166.995316	142.313278
6972.552165	277.325562	168.047348	144.767975
6972.555525	278.494446	168.982468	147.807129
6972.558820	280.130920	169.333130	150.144943
6972.562165	282.877838	171.612503	152.541199
6972.565486	284.806549	172.722961	155.288132
6972.568818	286.969025	173.774979	158.035065
6972.572150	289.248383	175.236115	163.178253
6972.575484	290.241974	176.288132	164.580948
6972.578817	292.930450	177.398590	167.853882
