time (s)	magX	magY	magZ
7614.407972	-303.445953	-180.579193	226.065445
7614.411295	-306.368225	-181.514328	229.572189
7614.414628	-308.881348	-183.501465	234.072479
7614.417965	-312.504974	-185.313278	239.858566
7614.421301	-314.316772	-186.657516	245.761536
7614.424624	-316.771484	-187.475754	250.437164
7614.427964	-319.693726	-189.521332	257.041504
7614.431294	-321.797791	-190.456467	263.178253
7614.434622	-324.836914	-193.554077	269.782562
7614.438000	-326.707184	-194.313843	275.510223
7614.441294	-328.343658	-196.300995	282.523651
7614.444623	-331.324371	-198.521912	288.894196
7614.447957	-334.655762	-200.158401	296.901245
7614.451296	-336.642883	-202.671539	303.914673
7614.454628	-339.448273	-203.781998	310.986542
7614.457954	-342.019867	-206.295151	320.571594
7614.461294	-344.649902	-206.645844	328.111023
7614.464619	-346.169495	-208.516083	335.884277
7614.467959	-348.857971	-210.152542	343.248383
7614.471291	-351.312683	-211.555237	351.839844
7614.474645	-354.351837	-212.841019	360.957336
7614.477951	-358.559906	-215.938629	371.009918
7614.481293	-359.845703	-216.172424	379.075378
7614.484663	-360.956177	-217.224442	389.537109
7614.487959	-362.475739	-220.205154	400.057281
7614.491291	-365.865570	-220.672714	410.343658
7614.494628	-366.157806	-221.666275	421.214478
7614.497951	-368.554077	-222.192276	430.215088
7614.501286	-370.132080	-224.179428	441.261261
7614.504624	-372.294586	-225.348343	453.651672
7614.507949	-374.398590	-226.634140	464.464050
7614.511285	-373.989471	-227.452362	475.393341
7614.514620	-376.444183	-228.913513	491.115143
7614.517947	-376.151947	-230.199310	502.336639
7614.521285	-375.859711	-229.673309	512.213928
7614.524624	-375.859711	-232.244888	526.766785
7614.527953	-377.496185	-231.017532	537.579224
7614.531277	-379.074219	-231.543549	549.326721
7614.534615	-378.898895	-232.011124	564.288696
7614.537952	-378.139099	-232.186447	574.925781
7614.541283	-377.729980	-232.069550	587.491516
7614.544612	-376.151947	-231.192871	601.050842
7614.547945	-375.275269	-230.959091	616.071350
7614.551334	-371.885437	-229.731735	627.117493
7614.554618	-371.242554	-229.205750	642.079529
7614.557949	-368.612518	-227.744598	656.281738
7614.561320	-367.209808	-227.803055	670.600830
7614.564614	-363.177094	-225.874344	684.101685
7614.567945	-360.371704	-224.120987	698.245483
7614.571281	-358.442993	-222.835205	712.155457
7614.574613	-352.306244	-220.438919	726.065430
7614.577944	-350.319092	-218.802460	739.683228
7614.581283	-346.052612	-216.113968	753.593201
7614.584616	-338.805359	-214.126846	769.198120
7614.587941	-334.772644	-211.146103	780.828796
7614.591277	-330.097015	-207.756302	795.673828
7614.594608	-323.258911	-204.307999	809.525452
7614.597943	-317.180603	-201.268860	826.649902
7614.601279	-310.050262	-197.411453	837.696106
7614.604630	-302.744568	-193.787857	851.021606
7614.607940	-295.380463	-189.053772	866.743408
7614.611271	-285.912323	-184.027466	879.250793
7614.614607	-277.671539	-177.949158	885.621338
7614.617962	-269.781403	-173.741089	901.050842
7614.621274	-260.021057	-166.727646	910.694397
7614.624603	-248.857971	-161.526016	921.272888
7614.627943	-239.097595	-155.915268	932.728271
7614.631277	-228.402100	-149.544724	943.365234
7614.634613	-218.174179	-142.005264	951.430725
7614.637941	-206.835770	-135.810059	963.996460
7614.641267	-194.153122	-128.679718	974.692017
7614.644609	-182.639389	-122.367615	981.763916
7614.647977	-169.722961	-114.360603	989.653992
7614.651273	-157.040329	-106.879601	998.303955
7614.654609	-144.533020	-99.690826	1003.330200
7614.657939	-130.856812	-92.092926	1010.285217
7614.661271	-117.472824	-83.618347	1013.733521
7614.664596	-104.205719	-76.546463	1018.584473
7614.667932	-90.529518	-67.487434	1020.980713
7614.671266	-76.210403	-59.889538	1031.267212
7614.674601	-61.774399	-51.064293	1031.033325
7614.677936	-47.689072	-42.531269	1027.409790
7614.681271	-33.662186	-34.933372	1030.098267
7614.684608	-19.226183	-26.049679	1034.072510
7614.687938	-4.439508	-17.575104	1029.338501
7614.691289	10.054939	-9.042080	1030.565796
7614.694602	25.367622	-0.567504	1028.169556
7614.697937	39.920517	9.485096	1025.364136
7614.701267	54.590302	17.199883	1022.091125
7614.704603	68.617180	25.732904	1021.156067
7614.707930	82.702515	33.856808	1012.856812
7614.711265	96.787849	42.565166	1009.876099
7614.714597	110.814728	50.630623	1002.102905
7614.717927	124.841614	58.637638	995.557007
7614.721261	137.874924	66.878433	989.420166
7614.724601	151.843369	74.885452	979.718262
7614.727925	164.584457	82.775574	972.471130
7614.731260	176.857986	90.431915	963.587341
7614.734623	189.131500	97.386917	957.509094
7614.737925	201.755692	105.277031	943.482178
7614.741256	213.678543	112.056686	937.696106
7614.744593	225.075409	118.719467	924.078308
7614.747951	236.063126	126.492699	913.207458
7614.751266	247.518417	133.097015	899.940369
7614.754598	256.986572	139.116882	890.238464
7614.757924	267.214478	145.195206	878.198669
7614.761264	275.805969	151.039734	865.399231
7614.764595	285.390991	156.767380	852.249023
7614.767929	292.346008	161.969009	837.228516
7614.771256	302.164825	167.229095	828.403259
7614.774589	309.528931	172.080063	808.940918
7614.777931	318.295746	176.112793	798.829956
7614.781256	323.322021	180.379303	783.049683
7614.784588	330.627686	185.054932	774.575073
7614.787920	337.115143	188.327866	754.703674
7614.791253	342.609009	192.009933	742.430176
7614.794591	348.570435	195.575104	731.734680
7614.797923	353.655182	198.380478	714.551758
7614.801255	358.973724	201.828751	701.810669
7614.804591	362.538849	204.692566	688.485107
7614.807937	365.168915	206.504379	674.867371
7614.811252	368.383392	208.783752	660.255981
7614.814582	373.292816	211.939804	647.339600
7614.817923	375.221497	212.991821	633.546448
7614.821268	380.072479	215.095840	621.272949
7614.824584	381.884277	216.498535	608.882507
7614.827922	381.358276	217.550552	594.329651
7614.831251	383.696075	219.128571	580.711853
7614.834582	386.618347	220.355927	566.100525
7614.837917	386.793671	220.589722	555.755737
7614.841250	386.033875	221.992401	542.663940
7614.844582	386.969025	222.635300	529.163086
7614.847916	388.079498	222.226181	519.694885
7614.851250	387.495026	222.693741	506.603149
7614.854583	388.196381	222.927536	497.018097
7614.857912	387.728821	223.161301	484.393921
7614.861247	387.261230	223.628860	470.367065
7614.864581	386.209259	223.161301	459.729950
7614.867919	384.923431	222.050842	448.566925
7614.871249	384.864990	222.927536	437.345428
7614.874582	384.046753	222.693741	427.234375
7614.877910	383.170074	221.933945	416.889526
7614.881281	380.306274	221.174149	406.836945
7614.884582	377.734650	220.589722	398.654572
7614.887914	376.799530	219.888367	389.244904
7614.891248	376.215088	219.187027	377.029816
7614.894595	372.591461	218.076553	368.146118
7614.897914	370.604309	217.550552	357.450623
7614.901247	369.961426	216.790756	351.372284
7614.904580	366.805389	215.095840	341.319672
7614.907912	364.467560	214.160721	331.968445
7614.911244	361.837524	213.108688	325.656342
7614.914577	359.850372	212.056702	316.129730
7614.917936	356.986572	211.530670	308.765625
7614.921243	354.707184	208.959091	300.466400
7614.924587	351.142029	208.140854	293.452972
7614.927909	348.628876	206.679718	286.673279
7614.931241	345.998840	205.335480	278.958496
7614.934574	344.888367	204.166565	272.237274
7614.937903	340.504974	202.880768	266.801849
7614.941261	337.991821	200.835175	261.015778
7614.944580	337.465820	200.016953	254.119232
7614.947912	333.959106	198.380478	246.813568
7614.951239	332.322632	196.977798	241.962601
7614.954570	327.530090	196.042664	237.228516
7614.957905	325.893646	194.815308	231.033310
7614.961269	323.497375	192.477493	225.948578
7614.964574	321.218018	191.834595	220.220932
7614.967908	318.178833	190.665680	215.136169
7614.971236	315.198120	188.503220	210.694321
7614.974573	312.509644	187.801865	206.135590
7614.977901	310.113373	186.165405	201.343079
7614.981241	308.944489	184.528915	196.492111
7614.984572	304.853302	183.476913	192.050262
7614.987906	301.697266	182.191101	187.140854
7614.991240	300.177673	180.613083	183.341904
7614.994565	297.138519	179.677963	179.250732
7614.997903	296.261841	178.216827	176.328461
7615.001234	293.105774	176.755692	172.295731
7615.004586	290.651093	175.294571	167.620102
7615.007903	289.073059	174.359436	164.230270
7615.011245	285.917023	173.015182	160.665115
7615.014568	283.520752	172.606079	158.677963
7615.017897	281.592041	171.437164	155.112793
7615.021236	278.903564	169.450027	150.729401
7615.024564	276.331970	168.456451	147.631790
7615.027905	275.221497	167.579773	145.118652
7615.031237	274.344818	166.469315	141.553482
7615.034569	270.253662	164.774399	138.981888
7615.037902	269.201630	164.306824	136.644073
7615.041231	266.863800	162.611923	133.897125
7615.044564	264.993561	161.910583	131.617767
7615.047915	262.246643	161.209229	129.163055
7615.051231	261.720612	160.566330	126.591461
7615.054565	259.207489	159.806549	126.240799
7615.057894	258.097015	158.228516	122.792526
7615.061226	256.402100	157.468719	119.811806
7615.064562	254.356522	156.299820	117.590889
7615.067889	252.369370	154.897125	115.720634
7615.071228	251.083588	154.604904	113.265923
7615.074563	250.440689	153.552887	112.856812
7615.077896	248.395081	151.974869	110.694328
7615.081229	246.875519	151.682632	108.999413
7615.084559	246.407959	151.390411	106.895378
7615.087892	244.303909	151.098190	105.025131
7615.091243	243.193451	150.104614	104.323784
7615.094564	242.199890	149.578598	103.739342
7615.097895	240.914078	148.234360	103.096428
7615.101225	239.920517	147.766800	99.881943
7615.104560	238.926956	147.065460	98.829926
7615.107889	237.641144	146.539444	97.777908
7615.111221	236.764481	145.896545	96.316772
7615.114558	235.712448	145.838104	94.972534
7615.117893	234.251328	144.844528	94.212738
7615.121246	232.731750	144.143188	92.693161
7615.124552	233.549973	143.792526	92.693161
7615.127886	231.445923	143.617172	91.465805
7615.131226	231.095261	143.266510	90.647575
7615.134552	229.692581	142.857391	89.946228
7615.137889	230.043243	141.922272	88.601990
7615.141265	228.640549	141.863815	87.900642
7615.144554	227.646988	141.454712	86.965515
7615.147888	226.419632	141.104034	87.140854
7615.151261	226.945663	141.337814	86.147285
7615.154554	226.010529	140.636459	85.270599
7615.157883	225.776733	140.227356	84.861488
7615.161222	224.607849	140.461136	84.043243
7615.164585	223.672714	139.701340	83.692574
7615.167887	224.257156	139.701340	82.231445
7615.171218	223.672714	139.935120	81.997665
7615.174555	223.088257	139.292221	81.646988
7615.177893	223.205154	139.292221	82.056107
7615.181216	222.270004	139.116882	82.114555
7615.184548	221.860901	139.058441	81.237869
7615.187885	221.393341	138.766220	80.770309
7615.191219	220.867325	138.707764	80.887199
7615.194568	221.568680	139.233780	80.887199
7615.199258	221.276443	139.116882	80.828758
7615.202639	220.399750	138.941544	80.594971
7615.205568	220.107544	138.883102	80.711868
7615.209195	221.393341	138.532440	80.770309
7615.212625	221.218018	139.000000	80.770309
7615.215918	220.399750	139.175323	81.004089
7615.219241	221.276443	139.233780	80.536530
7615.222568	220.925781	139.526001	81.997665
7615.225478	220.633545	139.292221	81.120979
7615.229177	221.802444	140.461136	82.406776
7615.232541	221.627106	140.636459	82.757446
7615.235915	222.153137	140.694916	82.991234
7615.238845	222.153137	140.811798	83.341904
7615.242185	222.679138	141.396255	83.867912
7615.245466	223.731155	142.097595	83.751022
7615.248730	223.146698	142.272934	84.861488
7615.252093	223.789597	142.331390	84.627708
7615.255382	224.315613	142.798950	85.562828
7615.258750	226.068970	142.915833	86.088837
7615.262089	225.659851	143.734070	87.199303
7615.265572	227.354767	143.967850	88.075974
7615.268787	227.646988	144.318512	88.134422
7615.272072	227.997650	145.253647	88.835770
7615.275398	229.634140	145.838104	90.063118
7615.278718	229.283478	146.305664	90.238457
7615.282108	230.861496	146.714783	91.758034
7615.285444	231.036819	147.357681	92.108711
7615.288801	232.322617	147.883682	93.277618
7615.292128	231.796616	148.468140	94.388077
7615.295521	233.549973	148.994141	95.147865
7615.298717	235.186447	150.046173	97.076569
7615.302057	235.069550	150.046173	97.427238
7615.305386	236.530685	151.331970	98.888367
7615.308751	237.641144	152.150192	100.583282
7615.312070	237.874939	152.793091	101.576851
7615.315501	240.329651	153.786667	102.628868
7615.318802	241.966095	155.014023	104.440681
7615.322060	241.673874	155.890701	107.187607
7615.325418	243.719452	156.475159	106.953827
7615.328726	244.537704	157.118057	109.233192
7615.332072	246.466400	158.696075	110.285217
7615.335410	246.407959	159.046753	112.623032
7615.338826	247.635315	159.806549	114.493279
7615.342143	249.505569	161.326126	115.545288
7615.345456	251.142029	162.787262	117.941551
7615.348744	252.486267	163.371704	121.857399
7615.352056	254.356522	164.715958	122.792526
7615.355379	256.343658	165.534180	124.954994
7615.358744	257.746338	166.586212	128.111053
7615.362079	258.272339	167.988892	129.338409
7615.365449	262.012848	169.625366	132.728226
7615.368812	262.714203	171.261826	135.592056
7615.372056	263.766205	171.554062	138.572754
7615.375378	265.694916	172.956757	140.501465
7615.378713	267.798950	174.710098	143.423737
7615.382088	269.026306	176.521912	146.404434
7615.385393	272.533020	177.866165	149.735825
7615.388784	272.649902	178.976624	153.885437
7615.392122	276.215088	180.496201	154.703690
7615.395034	278.143799	181.781998	158.736420
7615.398709	280.949158	183.418457	163.061356
7615.402052	282.819397	185.113373	166.158966
7615.405381	283.929871	186.749847	169.957916
7615.408732	286.793671	188.795441	174.224426
7615.411664	288.722382	189.905899	176.971359
7615.414950	291.644653	191.250137	181.237869
7615.418301	293.631775	193.471054	184.686157
7615.421640	294.917603	195.224426	189.011108
7615.425008	297.138519	196.042664	195.498550
7615.428279	299.242554	198.088257	198.537704
7615.431619	301.054352	199.724716	201.985977
7615.434952	302.924591	201.302734	208.005844
7615.438279	307.308014	203.640549	211.629440
7615.441639	308.769165	204.926361	217.649323
7615.444950	309.938049	206.679718	220.688492
7615.448315	313.970764	208.900635	227.117477
7615.451640	315.431915	210.537109	232.435989
7615.454976	318.529510	212.348923	238.046753
7615.458315	320.458221	214.102280	244.300415
7615.461641	322.620697	215.972534	249.735840
7615.464948	325.601410	217.725876	255.638794
7615.468285	326.302734	218.894806	261.834015
7615.471608	328.932770	220.589722	268.438354
7615.474941	331.387482	222.985962	274.808899
7615.478285	332.731750	223.979523	281.530090
7615.481609	336.706024	226.492706	289.361755
7615.484954	337.816467	228.713623	296.492096
7615.488303	340.388092	230.876099	304.382233
7615.491680	341.440094	232.278778	311.395660
7615.494968	344.420807	234.324371	320.454712
7615.498283	345.823486	236.369949	327.117462
7615.501609	347.576843	237.421982	335.592072
7615.504940	349.914673	239.584457	344.592621
7615.508276	351.375824	240.636475	353.710114
7615.511616	353.421387	243.208054	361.775574
7615.514939	354.999420	243.617187	369.957916
7615.518269	357.571014	245.896545	380.536530
7615.521612	357.512573	246.597900	390.413788
7615.524962	360.142609	248.935715	399.531281
7615.528291	360.843964	250.279968	409.116333
7615.531701	360.610168	251.507294	419.578033
7615.534985	362.305084	253.319107	430.039734
7615.538271	363.473999	254.780228	440.442993
7615.541611	364.467560	255.481583	452.132080
7615.544937	362.246643	256.358276	460.314423
7615.548269	363.766205	256.884277	472.880188
7615.551601	363.883118	258.462311	487.783783
7615.554947	362.655762	258.929871	498.537689
7615.558300	363.824677	259.806549	508.824066
7615.561625	361.895966	260.449432	521.565186
7615.564968	362.831085	260.975433	531.617798
7615.567859	361.662201	261.384583	542.780823
7615.571179	360.960846	261.735229	557.859741
7615.574512	357.687897	262.261261	569.782593
7615.577881	356.986572	261.326141	580.887207
7615.581175	354.298065	260.332550	594.212708
7615.584521	353.479828	260.566345	607.187622
7615.587841	349.856232	261.092346	621.448303
7615.591174	346.407959	259.163666	634.247803
7615.594510	344.946808	258.462311	646.521362
7615.597840	339.686737	256.767395	658.210449
7615.601176	336.998230	256.592041	673.756836
7615.604507	333.433075	254.721802	686.965515
7615.607841	327.822327	252.559311	699.414368
7615.611174	322.386902	251.215088	712.915222
7615.614505	316.834625	248.643478	725.773254
7615.617843	311.866760	246.422562	738.748108
7615.621199	305.437744	242.974289	753.534729
7615.624506	298.950348	240.519577	767.094116
7615.627842	291.820007	238.941559	781.997620
7615.631222	285.449463	234.733490	795.907654
7615.634508	277.676208	231.285202	805.258911
7615.637839	271.247223	227.310928	818.233704
7615.641176	262.012848	223.511963	830.039734
7615.644505	252.310944	219.596130	847.748718
7615.647838	243.135025	214.628281	856.340149
7615.651176	234.309769	209.718887	866.568054
7615.654504	224.023392	204.517227	877.731201
7615.657840	214.789001	199.490936	891.348877
7615.661178	204.561081	193.880188	901.226196
7615.664500	192.638229	187.977203	913.499695
7615.667836	181.650497	182.191101	922.500305
7615.671179	169.844543	175.703674	932.260681
7615.674501	157.278778	169.274689	939.917053
7615.677839	144.829926	163.254822	952.541199
7615.681170	132.673294	156.182938	956.340149
7615.684499	119.639977	149.052597	962.710693
7615.687837	106.723557	141.980713	972.704834
7615.691161	93.690239	133.623032	977.029846
7615.694504	80.481590	127.135590	982.465210
7615.697834	67.097603	118.661018	992.342529
7615.701196	53.129166	111.296913	992.400879
7615.704500	39.452950	103.348335	1000.115723
7615.707864	25.484512	95.458214	1001.109253
7615.711164	10.990065	87.275871	1005.200439
7615.714506	-3.270601	78.918182	1005.843384
7615.717828	-16.713032	70.385155	1009.992920
7615.721159	-31.441263	61.852135	1015.311462
7615.724495	-45.117470	53.436001	1015.311462
7615.727830	-59.027466	45.136765	1010.694397
7615.731160	-73.346581	36.369961	1007.304504
7615.734496	-86.964348	27.661600	1005.901794
7615.737826	-100.698997	19.070133	1003.271729
7615.741162	-114.316780	10.946230	1002.336670
7615.744497	-128.752777	1.302747	998.070129
7615.747829	-141.902969	-7.522501	996.083008
7615.751164	-154.059616	-15.295734	992.225586
7615.754494	-167.209824	-23.653419	981.354797
7615.757827	-179.717133	-32.186440	979.250793
7615.761162	-192.049103	-39.842785	968.964355
7615.764484	-205.199295	-47.791348	962.769165
7615.767851	-215.427231	-55.798363	957.099976
7615.771155	-226.765640	-62.578030	945.527771
7615.774493	-237.578018	-70.175919	938.923401
7615.777823	-248.390411	-77.773819	927.643433
7615.781157	-258.969025	-85.137932	918.058472
7615.784494	-268.554077	-91.566917	909.174805
7615.787826	-277.145538	-97.879013	897.544128
7615.791153	-287.548798	-104.424889	886.790161
7615.794518	-296.900055	-110.327873	873.055481
7615.797824	-305.666870	-117.341324	868.730591
7615.801155	-312.680298	-122.484512	851.606018
7615.804488	-320.921082	-128.796616	840.384521
7615.807823	-326.590302	-132.946228	825.597900
7615.811152	-334.947968	-138.673874	814.668640
7615.814490	-341.026276	-143.349503	802.921082
7615.817818	-346.169495	-147.616013	787.842163
7615.821155	-352.598480	-152.642319	775.977783
7615.824488	-356.572754	-156.207474	761.658691
7615.827817	-363.001770	-159.714218	748.625366
7615.831150	-367.151367	-163.630051	736.527161
7615.834499	-370.307434	-166.143188	723.961426
7615.837847	-373.463470	-169.591476	711.921692
7615.841154	-377.905334	-172.981293	697.485718
