time (s)	magX	magY	magZ
4039.509326	126.767975	368.734070	448.313873
4039.512615	128.579773	367.039154	463.743408
4039.515948	130.333145	365.987152	480.225006
4039.519270	132.437180	363.649323	498.635315
4039.522610	134.599655	360.668610	515.000000
4039.525939	136.820572	357.512573	533.234924
4039.529283	138.223251	352.310944	549.541138
4039.532604	139.450607	346.407959	567.074829
4039.535970	141.437759	342.901245	586.478638
4039.539303	143.074234	335.128021	601.674438
4039.542626	144.126236	327.647003	620.435425
4039.545977	146.230270	320.750427	638.261230
4039.548850	146.697830	312.100525	657.080627
4039.552182	147.925186	302.690826	673.562195
4039.555513	149.620102	292.170654	690.745117
4039.558877	149.620102	281.708954	705.473389
4039.562177	150.847458	270.604340	720.260071
4039.565513	151.548813	257.103455	737.676819
4039.568844	151.315018	243.251892	755.677917
4039.572206	150.964340	229.926361	767.834595
4039.575509	150.672119	215.315018	782.445862
4039.578845	150.905899	199.768555	798.167725
4039.582172	149.678558	184.163651	811.376404
4039.585516	148.568085	166.746933	824.526550
4039.588838	147.165390	149.447113	839.196350
4039.592178	145.470474	131.621277	847.086426
4039.595507	144.301575	113.035660	857.197510
4039.598839	141.846878	94.391586	868.302185
4039.602188	139.567505	75.163055	877.302673
4039.605508	136.879013	55.525425	882.445923
4039.608835	134.424301	36.063122	892.089417
4039.612220	131.268265	15.081238	894.485718
4039.615526	128.112213	-4.907070	900.505554
4039.618839	124.897720	-24.544710	901.849792
4039.622171	121.040329	-46.169491	906.876099
4039.625504	117.884277	-65.807129	904.479797
4039.628842	113.617767	-85.327873	903.720032
4039.632168	110.286377	-104.848633	898.226196
4039.635509	106.487427	-124.077148	897.758606
4039.638843	102.513153	-142.955002	891.095825
4039.642168	97.779068	-161.423721	883.790161
4039.645516	93.512573	-179.074219	874.906494
4039.648834	89.596725	-195.731155	869.061890
4039.652173	84.921097	-213.264755	857.255981
4039.655509	81.414375	-229.512558	847.086426
4039.658830	76.388077	-243.656342	832.533569
4039.662172	72.822906	-258.618347	822.422546
4039.665501	68.497955	-271.593231	808.103394
4039.668832	64.231445	-284.100525	791.972534
4039.672165	60.023376	-295.555817	777.594910
4039.675512	56.282875	-306.192871	761.464050
4039.678832	52.893044	-317.472839	745.800659
4039.682165	48.801868	-327.233185	729.728210
4039.685506	44.827583	-335.649323	713.831055
4039.688838	41.379311	-343.247223	693.784302
4039.692160	37.872589	-348.741089	678.062500
4039.695498	34.599648	-354.994751	658.833984
4039.698837	30.742256	-360.021027	641.183472
4039.702158	26.884861	-365.924011	622.831665
4039.705498	24.196377	-369.430756	604.830505
4039.708836	21.157217	-372.528351	589.400879
4039.712198	18.527176	-374.866150	568.594360
4039.715497	15.780245	-375.801300	552.989441
4039.718830	12.974867	-379.541779	532.241394
4039.722160	10.344828	-381.236694	516.753296
4039.725494	8.357685	-381.061340	500.213348
4039.728832	5.844534	-380.067780	482.738159
4039.732162	2.863821	-379.892456	464.327881
4039.735498	1.519579	-378.957336	448.781403
4039.738824	-0.642899	-377.613068	431.715363
4039.742159	-2.630039	-377.320862	415.993561
4039.745494	-4.208069	-373.814148	400.505554
4039.748846	-6.019871	-371.651672	385.017548
4039.752170	-7.656342	-368.320282	370.055511
4039.755530	-8.474575	-366.976044	356.087067
4039.758827	-10.169491	-363.586212	343.229126
4039.762166	-11.747517	-360.137939	329.085327
4039.765493	-13.208652	-356.163635	316.402679
4039.768822	-14.026886	-351.897125	303.603149
4039.772163	-15.254238	-348.682617	290.043854
4039.775492	-15.780247	-344.766785	278.471649
4039.778822	-17.124489	-339.214478	267.542358
4039.782156	-17.884277	-334.772644	255.794861
4039.785490	-18.702515	-332.668610	245.917587
4039.788826	-18.877850	-325.772064	234.520752
4039.792156	-19.170074	-321.680908	224.760376
4039.795495	-19.462303	-317.531250	215.818253
4039.798841	-19.988312	-311.920502	206.525436
4039.802154	-20.631210	-308.180023	197.174164
4039.805483	-20.864990	-303.387482	188.407364
4039.808821	-20.923439	-298.419617	181.510818
4039.812152	-21.391003	-294.211578	173.562256
4039.815487	-21.741673	-289.535950	166.782593
4039.818820	-21.391003	-284.334290	158.249573
4039.822205	-21.566334	-280.067810	152.697250
4039.825494	-21.507893	-276.794861	146.385162
4039.828818	-21.858562	-271.593231	140.248398
4039.832153	-21.741673	-267.443604	136.215668
4039.835481	-21.975456	-262.884888	128.734650
4039.838823	-22.326126	-259.319702	124.175926
4039.842176	-22.033897	-254.819412	117.863823
4039.845487	-22.092346	-251.020447	113.947983
4039.848821	-21.624783	-246.403275	107.752777
4039.852155	-21.858562	-243.422546	104.596733
4039.855486	-21.449444	-238.688477	100.271774
4039.858815	-21.215664	-236.350662	96.589722
4039.862152	-21.566334	-231.733475	92.732323
4039.865488	-21.624783	-229.454117	87.998253
4039.868818	-21.507893	-225.012268	85.251320
4039.872147	-21.449444	-221.388657	83.030396
4039.875475	-21.449444	-218.641724	79.289894
4039.878816	-21.332554	-215.602570	76.309181
4039.882144	-21.449444	-211.277603	72.685570
4039.885485	-21.624783	-208.413788	71.049095
4039.888809	-21.157219	-205.433075	67.600822
4039.892143	-21.040329	-201.692566	64.853882
4039.895477	-21.157219	-199.004089	61.931614
4039.898815	-20.864990	-196.198715	59.827583
4039.902187	-20.631210	-193.217987	57.255989
4039.905479	-20.338982	-190.354172	55.385738
4039.908811	-20.572765	-188.250137	52.346581
4039.912149	-20.748100	-184.977203	50.125656
4039.915510	-19.812973	-182.054932	47.846287
4039.918811	-19.696083	-180.009338	46.443600
4039.922142	-19.871418	-176.970184	44.573349
4039.925479	-19.754528	-175.099930	42.819984
4039.928813	-19.520748	-172.353012	40.131500
4039.932143	-19.286968	-170.307419	38.670368
4039.935477	-18.994740	-168.378723	37.676796
4039.938805	-19.170074	-165.514893	36.098774
4039.942144	-19.286968	-163.819977	35.105202
4039.945473	-19.111629	-161.365280	33.994740
4039.948803	-19.228519	-159.611923	32.825832
4039.952137	-18.760960	-157.624771	30.488018
4039.955472	-19.170074	-155.637634	30.254238
4039.958809	-18.468731	-154.468735	28.559322
4039.962135	-18.936295	-153.066040	27.273525
4039.965467	-18.702515	-150.260666	26.396845
4039.968832	-18.176506	-147.922852	26.864407
4039.972159	-18.644070	-147.630630	24.935711
4039.975464	-18.351841	-145.409698	23.883694
4039.978803	-18.234951	-144.474564	22.831678
4039.982140	-18.059616	-142.370544	22.481005
4039.985470	-18.293396	-142.136765	22.305670
4039.988834	-18.410286	-140.208054	20.844536
4039.992141	-17.942722	-138.746933	21.136763
4039.995469	-17.650497	-138.045593	19.149622
4039.998805	-17.767387	-136.000000	19.208067
4040.002136	-17.825832	-134.831085	18.039158
4040.005470	-17.416718	-133.837524	18.272942
4040.008804	-17.416718	-132.668625	16.987143
4040.012134	-17.650497	-131.675049	17.220922
4040.015466	-17.884277	-130.564575	16.519579
4040.018804	-17.533607	-129.337219	16.110462
4040.022130	-17.942722	-128.285217	15.409117
4040.025481	-17.533607	-127.466980	14.824665
4040.028800	-17.825832	-126.531845	14.473991
4040.032136	-17.007599	-127.057861	14.181765
4040.035463	-18.001167	-125.538284	14.473991
4040.038792	-18.001167	-125.070724	13.188194
4040.042159	-18.001167	-123.901810	13.947983
4040.045469	-17.592052	-122.849792	12.837523
4040.048798	-18.059616	-122.323792	11.727060
4040.052133	-17.533607	-121.271774	11.843950
4040.055464	-17.299824	-120.395081	11.610170
4040.058798	-17.592052	-119.576859	11.902395
4040.062127	-17.708942	-119.635300	11.025717
4040.065464	-17.592052	-118.174164	10.733490
4040.068830	-17.475163	-118.641724	10.558153
4040.072130	-17.533607	-118.174164	11.142607
4040.075462	-17.007599	-117.239044	10.149035
4040.078796	-17.241379	-116.713028	9.856809
4040.082128	-16.949154	-116.128586	9.739918
4040.085461	-18.059616	-116.011688	10.207481
4040.088793	-17.124489	-115.836349	10.324371
4040.092121	-17.241379	-115.193451	8.746347
4040.095459	-17.299824	-115.661011	9.038574
4040.098789	-17.416718	-115.310349	8.921683
4040.102124	-17.825832	-114.784332	8.629457
4040.105458	-17.358269	-114.492111	9.272355
4040.108786	-16.773815	-114.550552	10.032145
4040.112147	-17.066044	-114.316772	9.681473
4040.115515	-17.942722	-115.018112	9.330801
4040.118790	-18.001167	-114.609009	8.921683
4040.122122	-17.708942	-114.609009	9.330801
4040.125452	-18.001167	-114.784332	8.045003
4040.128791	-17.533607	-114.316772	8.512566
4040.132118	-17.884277	-114.375214	9.272355
4040.135450	-18.118061	-114.316772	9.213910
4040.138790	-17.884277	-115.368790	8.220339
4040.142124	-18.644070	-115.018112	9.038574
4040.145457	-18.936295	-115.427231	9.330801
4040.148788	-18.702515	-114.784332	9.915255
4040.152120	-18.994740	-115.368790	9.798363
4040.155457	-18.410286	-115.661011	9.739918
4040.158787	-18.644070	-116.362366	9.447691
4040.162140	-18.410286	-116.537689	9.506136
4040.165452	-19.286968	-116.479248	9.798363
4040.168788	-18.994740	-116.596146	10.499708
4040.172120	-19.345413	-117.239044	10.382818
4040.175456	-19.286968	-117.940384	11.025717
4040.178787	-19.871418	-117.998825	11.493279
4040.182112	-19.696083	-118.291061	11.785505
4040.185453	-20.105202	-118.232620	11.142607
4040.188782	-19.929867	-118.817062	10.441263
4040.192123	-20.163647	-120.044418	11.785505
4040.195451	-19.403858	-119.927521	11.025717
4040.198818	-19.988312	-120.628876	12.136177
4040.202117	-20.105202	-121.622437	12.662186
4040.205472	-20.689655	-121.973114	13.246639
4040.208777	-20.689655	-122.849792	13.012857
4040.212114	-21.215664	-123.492691	13.597311
4040.215442	-20.748100	-123.784927	13.538866
4040.218792	-21.274113	-124.603165	14.006430
4040.222115	-21.157219	-125.187607	14.240210
4040.225447	-21.391003	-126.648743	14.766218
4040.228777	-21.332554	-127.350082	14.298656
4040.232112	-22.150787	-127.934540	14.532436
4040.235446	-22.092346	-128.869659	15.058445
4040.238777	-22.384571	-130.155457	15.818235
4040.242108	-22.793690	-130.856812	16.870251
4040.245439	-23.202805	-131.850372	17.104033
4040.248788	-23.027470	-133.428406	18.156050
4040.252109	-23.904148	-134.831085	18.798948
4040.255436	-24.079487	-135.941559	18.506721
4040.258774	-24.196377	-136.876678	19.441847
4040.262108	-24.254818	-138.279373	20.376972
4040.265438	-24.897720	-139.097595	21.019873
4040.268789	-25.891296	-140.734070	21.662771
4040.272109	-25.949738	-141.902969	23.065460
4040.275438	-26.358856	-143.539444	23.299242
4040.278775	-27.293983	-145.409698	24.643484
4040.282107	-27.177094	-146.870834	25.695499
4040.285467	-27.878437	-149.500870	26.338398
4040.288770	-27.761547	-151.663361	28.033316
4040.292127	-28.229107	-152.423141	28.033316
4040.295438	-28.813560	-154.059616	29.085331
4040.298767	-28.930454	-156.163651	30.546465
4040.302101	-30.216251	-157.858551	32.007595
4040.305440	-31.443600	-159.787247	33.176502
4040.308773	-30.742256	-161.949738	34.053185
4040.312100	-31.326710	-163.060196	35.514320
4040.315436	-32.261833	-165.164215	36.917007
4040.318775	-32.554062	-167.911163	38.085915
4040.322100	-33.430740	-169.839859	39.839275
4040.325433	-33.722969	-172.528336	41.826416
4040.328783	-34.248974	-174.047928	42.819984
4040.332100	-34.541206	-176.385742	44.164230
4040.335434	-35.417889	-178.723557	46.034481
4040.338779	-36.411457	-181.704254	47.846287
4040.342101	-36.820576	-184.100525	50.768555
4040.345430	-37.463474	-186.087677	51.236118
4040.348768	-38.047924	-188.659271	54.275272
4040.352102	-39.567501	-191.523071	55.327290
4040.355434	-40.151958	-194.562241	58.950909
4040.358769	-40.794857	-197.542953	60.645817
4040.362098	-40.853298	-199.763870	62.516068
4040.365435	-42.197544	-203.562820	66.081238
4040.368766	-43.366451	-206.368195	67.951492
4040.372134	-44.360027	-209.115143	71.808884
4040.375435	-45.470486	-213.030975	74.555817
4040.378767	-46.230274	-217.180588	78.296318
4040.382094	-47.457630	-220.102859	81.393929
4040.385426	-48.158970	-222.499115	85.426659
4040.388759	-49.152546	-226.940964	89.517830
4040.392096	-50.029224	-231.090576	92.323204
4040.395432	-51.665691	-234.246628	96.180595
4040.398760	-52.776157	-237.636459	100.622444
4040.402091	-54.120403	-241.610748	105.298073
4040.405429	-54.938633	-245.701920	110.324371
4040.408761	-56.691998	-249.208649	115.233788
4040.412117	-57.451778	-253.592056	119.617187
4040.415455	-59.088253	-257.800110	125.344833
4040.418759	-60.198719	-262.358856	131.598480
4040.422090	-61.542957	-265.690247	137.676804
4040.425422	-63.179432	-270.015198	143.053772
4040.428757	-64.114563	-274.515472	149.599655
4040.432092	-66.452362	-278.022217	156.262421
4040.435421	-67.738159	-283.223846	163.684982
4040.438758	-69.374634	-287.431885	170.347748
4040.442096	-70.952667	-290.587952	177.828766
4040.445420	-72.881363	-295.964935	186.127991
4040.448755	-73.758041	-299.530090	193.375229
4040.452090	-75.920517	-304.614838	203.077164
4040.455423	-78.141434	-308.296906	210.441269
4040.458769	-79.602570	-312.797180	219.383392
4040.462093	-82.349503	-316.245483	228.442444
4040.465425	-83.109299	-321.330200	238.085922
4040.468757	-85.563995	-325.655151	248.313873
4040.472084	-87.726471	-330.681458	258.717133
4040.475421	-88.836945	-334.071289	268.711304
4040.478753	-91.525421	-338.922241	281.218597
4040.482089	-93.804794	-341.552307	292.089417
4040.485417	-96.142609	-345.994141	304.947418
4040.488782	-98.012863	-348.448853	316.110443
4040.492090	-99.766205	-353.241394	329.202240
4040.495419	-101.870239	-356.864990	342.761536
4040.498749	-103.915833	-359.378143	356.028625
4040.502086	-106.019867	-363.235535	370.347748
4040.505416	-109.117477	-365.514893	385.835785
4040.508757	-110.111038	-367.852722	398.927521
4040.512083	-112.331970	-369.956757	416.168884
4040.515416	-114.202225	-371.184113	430.488037
4040.518750	-116.598480	-372.820557	447.670959
4040.522088	-118.059616	-374.106384	462.165405
4040.525413	-120.105194	-373.755676	481.218597
4040.528745	-121.800125	-374.457031	499.102875
4040.532092	-123.495026	-373.989471	516.694885
4040.535417	-125.482178	-373.054352	534.812927
4040.538750	-127.235535	-371.359436	551.469849
4040.542083	-128.696655	-369.664520	569.763245
4040.545416	-129.982468	-366.625366	591.271118
4040.548748	-132.203384	-364.988892	608.161865
4040.552092	-133.313858	-359.378143	627.156616
4040.555418	-134.950317	-353.416718	645.566895
4040.558748	-135.651672	-348.273529	661.522461
4040.562119	-136.995911	-341.844513	680.517212
4040.565410	-137.697250	-336.233765	697.057251
4040.568743	-138.632370	-327.992981	716.344177
4040.572076	-139.333725	-317.648163	733.293396
4040.575429	-138.398590	-308.764465	749.891846
4040.578742	-139.742828	-298.361206	763.626526
4040.582073	-138.866150	-287.490356	777.711853
4040.585412	-139.158386	-276.210388	792.615417
4040.588740	-138.340149	-263.878448	807.928101
4040.592073	-139.216827	-251.604904	821.253601
4040.595411	-137.288132	-236.759796	835.222107
4040.598740	-136.002335	-221.622437	845.917542
4040.602080	-135.125656	-207.244888	857.139038
4040.605427	-133.664520	-189.886612	863.509583
4040.608738	-132.028046	-173.521912	871.925781
4040.612073	-130.157791	-156.748093	878.646973
4040.615407	-128.930435	-138.396255	884.608398
4040.618746	-125.891281	-120.921097	888.699585
4040.622074	-124.021042	-102.101700	891.914001
4040.625426	-120.631210	-82.580948	897.232544
4040.628750	-118.293396	-63.469318	894.135010
4040.632076	-115.780243	-43.948566	897.174072
4040.635402	-111.747513	-23.434248	897.524780
4040.638743	-109.292816	-3.679718	890.978943
4040.642074	-104.967850	15.782585	888.290405
4040.645401	-102.104019	36.647579	884.900574
4040.648775	-98.246643	56.168324	880.867920
4040.652077	-94.447693	75.689072	874.205139
4040.655404	-90.005844	95.794266	864.970703
4040.658736	-86.732910	114.847473	858.191162
4040.662079	-82.700180	133.900650	849.190552
4040.665403	-78.492111	152.778488	834.403809
4040.668740	-74.517838	170.019882	825.695435
4040.672071	-70.660431	188.371719	810.324341
4040.675399	-66.160141	205.554657	798.109253
4040.678736	-62.478085	221.568665	783.147278
4040.682071	-58.270016	237.582703	771.399719
4040.685400	-54.178844	251.551147	752.989441
4040.688737	-50.613674	266.571594	742.293945
4040.692075	-46.522503	279.838684	726.572144
4040.695461	-43.366451	293.339569	706.759216
4040.698736	-39.742840	304.327301	690.043823
4040.702067	-36.119228	315.548798	673.796021
4040.705403	-33.138515	324.724731	655.911682
4040.708730	-29.982468	335.011108	640.482178
4040.712068	-26.183517	343.485687	622.422546
4040.715403	-23.787258	350.265350	607.051392
4040.718733	-20.689655	356.109894	590.745117
4040.722066	-17.942722	362.421967	570.932190
4040.725397	-15.429573	367.915833	554.801270
4040.728728	-12.565754	371.773224	538.845642
4040.732057	-9.935711	376.098206	521.721191
4040.735401	-7.597897	378.494446	505.414978
4040.738727	-5.376972	381.650482	489.517853
4040.742057	-3.272942	382.527191	473.562256
4040.745393	-1.344242	383.403870	457.606659
4040.748730	0.876680	384.455872	441.475739
4040.752061	2.688486	385.449432	429.786682
4040.755392	4.208065	384.397461	413.071320
4040.758725	5.902981	383.929871	399.044434
4040.762061	7.773232	382.585602	385.368225
4040.765399	9.175920	380.832275	370.113983
4040.768720	10.344828	379.429565	358.834015
4040.772090	11.513733	377.267120	345.742249
4040.775390	12.507305	374.286407	333.760956
4040.778728	13.968439	371.071899	321.312103
4040.782061	15.371127	367.798950	310.558167
4040.785391	16.014027	363.941559	297.466400
4040.788719	17.007597	360.317963	286.946228
4040.792055	17.825832	356.635895	274.906464
4040.795391	18.760958	353.538300	264.970795
4040.798726	19.988310	349.096436	254.041489
4040.802061	20.046757	344.245483	243.930450
4040.805387	20.514318	339.862061	236.215668
4040.808721	21.507889	336.355377	227.215088
4040.812053	21.975452	330.510803	216.987137
4040.815407	22.033897	325.893616	207.986557
4040.818718	22.384569	321.217987	199.278198
4040.822057	22.501461	316.483948	191.329636
4040.825381	22.852133	311.457611	184.842209
4040.828717	23.085915	307.074219	176.133850
4040.832070	23.845703	302.807709	169.412628
4040.835391	23.261250	297.255402	163.860321
4040.838713	23.962593	292.813568	155.619522
4040.842051	23.728813	286.910583	149.248978
4040.845385	24.430157	282.819397	142.410873
4040.848714	24.021040	278.202240	136.449448
4040.852051	23.962593	273.351257	131.540039
4040.855387	24.137930	268.383392	125.637054
4040.858748	24.196377	263.532440	120.552307
4040.862049	23.962593	259.616608	114.707779
4040.865387	23.611923	255.642334	110.558151
4040.868712	23.378141	251.200470	105.707191
4040.872045	23.495031	247.284637	101.382233
4040.875376	23.261250	243.427246	97.174171
4040.878711	23.495031	238.868500	94.076569
4040.882050	23.202805	235.069550	89.926941
4040.885382	23.027470	231.212158	85.894218
4040.888714	22.735241	226.945648	83.205727
4040.892045	22.969023	223.146713	79.056114
4040.895378	22.969023	219.815308	76.133842
4040.898754	22.384569	216.542374	72.977791
4040.902087	22.618351	211.866745	70.464645
4040.905378	22.326124	209.061371	67.542381
4040.908724	21.800117	205.729996	64.678551
4040.912041	21.800117	203.158386	61.405609
4040.915371	22.033897	200.060791	60.002922
4040.918713	22.443016	196.612518	57.606663
4040.922042	21.566336	194.040909	55.210400
4040.925374	22.150787	191.293991	53.515488
4040.928705	21.975452	187.670380	50.300991
4040.932039	21.157217	184.455887	48.430740
4040.935373	21.215664	182.351837	45.742256
4040.938712	21.449444	179.604919	43.755116
4040.942040	21.274109	176.974884	42.352425
4040.945396	20.748100	174.403275	40.715954
4040.948710	20.572763	171.013443	38.845703
4040.952042	20.631208	168.617187	36.800117
